9.994755630 622.0
10.011466899 583.0
10.028178168 641.0
10.044889437 637.0
10.061600706 610.0
10.078311975 620.0
10.095023244 628.0
10.111734513 577.0
10.128445782 552.0
10.145157051 593.0
10.161868320 559.0
10.178579589 602.0
10.195290858 623.0
10.212002127 603.0
10.228713396 560.0
10.245424665 616.0
10.262135934 600.0
10.278847203 588.0
10.295558472 570.0
10.312269741 551.0
10.328981010 607.0
10.345692279 622.0
10.362403548 615.0
10.379114817 584.0
10.395826085 601.0
10.412537354 611.0
10.429248623 615.0
10.445959892 623.0
10.462671161 566.0
10.479382430 603.0
10.496093699 610.0
10.512804968 613.0
10.529516237 618.0
10.546227506 653.0
10.562938775 628.0
10.579650044 664.0
10.596361313 622.0
10.613072582 673.0
10.629783851 668.0
10.646495120 675.0
10.663206389 712.0
10.679917658 755.0
10.696628927 761.0
10.713340196 852.0
10.730051465 882.0
10.746762734 1017.0
10.763474003 1184.0
10.780185272 1121.0
10.796896541 1071.0
10.813607810 901.0
10.830319079 748.0
10.847030348 686.0
10.863741617 572.0
10.880452886 635.0
10.897164155 631.0
10.913875424 593.0
10.930586693 556.0
10.947297962 586.0
10.964009231 562.0
10.980720500 564.0
10.997431769 602.0
11.014143038 561.0
11.030854307 578.0
11.047565576 588.0
11.064276845 567.0
11.080988114 584.0
11.097699383 577.0
11.114410652 499.0
11.131121921 521.0
11.147833190 569.0
11.164544458 541.0
11.181255727 570.0
11.197966996 538.0
11.214678265 554.0
11.231389534 571.0
11.248100803 551.0
11.264812072 526.0
11.281523341 558.0
11.298234610 560.0
11.314945879 523.0
11.331657148 553.0
11.348368417 538.0
11.365079686 521.0
11.381790955 556.0
11.398502224 552.0
11.415213493 547.0
11.431924762 550.0
11.448636031 533.0
11.465347300 516.0
11.482058569 522.0
11.498769838 541.0
11.515481107 553.0
11.532192376 556.0
11.548903645 540.0
11.565614914 521.0
11.582326183 531.0
11.599037452 525.0
11.615748721 532.0
11.632459990 516.0
11.649171259 520.0
11.665882528 534.0
11.682593797 528.0
11.699305066 558.0
11.716016335 523.0
11.732727604 535.0
11.749438873 557.0
11.766150142 553.0
11.782861411 525.0
11.799572680 567.0
11.816283949 573.0
11.832995218 605.0
11.849706487 603.0
11.866417756 573.0
11.883129025 604.0
11.899840294 553.0
11.916551563 583.0
11.933262832 629.0
11.949974100 611.0
11.966685369 746.0
11.983396638 712.0
12.000107907 738.0
12.016819176 782.0
12.033530445 855.0
12.050241714 923.0
12.066952983 1018.0
12.083664252 1195.0
12.100375521 1288.0
12.117086790 1495.0
12.133798059 1818.0
12.150509328 1927.0
12.167220597 1691.0
12.183931866 1359.0
12.200643135 1034.0
12.217354404 833.0
12.234065673 681.0
12.250776942 594.0
12.267488211 566.0
12.284199480 593.0
12.300910749 572.0
12.317622018 563.0
12.334333287 514.0
12.351044556 550.0
12.367755825 523.0
12.384467094 487.0
12.401178363 511.0
12.417889632 544.0
12.434600901 520.0
12.451312170 505.0
12.468023439 495.0
12.484734708 516.0
12.501445977 514.0
12.518157246 492.0
12.534868515 550.0
12.551579784 513.0
12.568291053 486.0
12.585002322 530.0
12.601713591 569.0
12.618424860 495.0
12.635136129 543.0
12.651847398 544.0
12.668558667 520.0
12.685269936 540.0
12.701981205 514.0
12.718692473 543.0
12.735403742 561.0
12.752115011 490.0
12.768826280 494.0
12.785537549 494.0
12.802248818 508.0
12.818960087 521.0
12.835671356 511.0
12.852382625 489.0
12.869093894 512.0
12.885805163 485.0
12.902516432 504.0
12.919227701 525.0
12.935938970 519.0
12.952650239 531.0
12.969361508 484.0
12.986072777 528.0
13.002784046 480.0
13.019495315 511.0
13.036206584 503.0
13.052917853 482.0
13.069629122 504.0
13.086340391 498.0
13.103051660 480.0
13.119762929 534.0
13.136474198 479.0
13.153185467 507.0
13.169896736 436.0
13.186608005 503.0
13.203319274 459.0
13.220030543 502.0
13.236741812 503.0
13.253453081 498.0
13.270164350 516.0
13.286875619 490.0
13.303586888 485.0
13.320298157 480.0
13.337009426 498.0
13.353720695 508.0
13.370431964 520.0
13.387143233 480.0
13.403854502 537.0
13.420565771 534.0
13.437277040 518.0
13.453988309 518.0
13.470699578 508.0
13.487410847 489.0
13.504122115 493.0
13.520833384 525.0
13.537544653 533.0
13.554255922 555.0
13.570967191 519.0
13.587678460 474.0
13.604389729 502.0
13.621100998 515.0
13.637812267 564.0
13.654523536 570.0
13.671234805 552.0
13.687946074 535.0
13.704657343 569.0
13.721368612 608.0
13.738079881 621.0
13.754791150 573.0
13.771502419 511.0
13.788213688 663.0
13.804924957 545.0
13.821636226 493.0
13.838347495 554.0
13.855058764 580.0
13.871770033 550.0
13.888481302 551.0
13.905192571 485.0
13.921903840 503.0
13.938615109 529.0
13.955326378 568.0
13.972037647 534.0
13.988748916 579.0
14.005460185 508.0
14.022171454 539.0
14.038882723 544.0
14.055593992 546.0
14.072305261 554.0
14.089016530 514.0
14.105727799 520.0
14.122439068 517.0
14.139150337 511.0
14.155861606 476.0
14.172572875 525.0
14.189284144 498.0
14.205995413 484.0
14.222706682 479.0
14.239417951 486.0
14.256129220 503.0
14.272840488 477.0
14.289551757 470.0
14.306263026 473.0
14.322974295 457.0
14.339685564 510.0
14.356396833 510.0
14.373108102 501.0
14.389819371 550.0
14.406530640 556.0
14.423241909 514.0
14.439953178 587.0
14.456664447 595.0
14.473375716 589.0
14.490086985 545.0
14.506798254 581.0
14.523509523 621.0
14.540220792 575.0
14.556932061 586.0
14.573643330 637.0
14.590354599 580.0
14.607065868 540.0
14.623777137 552.0
14.640488406 590.0
14.657199675 561.0
14.673910944 564.0
14.690622213 540.0
14.707333482 516.0
14.724044751 538.0
14.740756020 540.0
14.757467289 553.0
14.774178558 551.0
14.790889827 552.0
14.807601096 533.0
14.824312365 535.0
14.841023634 512.0
14.857734903 495.0
14.874446172 494.0
14.891157441 487.0
14.907868710 499.0
14.924579979 541.0
14.941291248 553.0
14.958002517 558.0
14.974713786 509.0
14.991425055 580.0
15.008136324 510.0
15.024847593 544.0
15.041558862 489.0
15.058270130 532.0
15.074981399 494.0
15.091692668 496.0
15.108403937 528.0
15.125115206 476.0
15.141826475 487.0
15.158537744 507.0
15.175249013 489.0
15.191960282 479.0
15.208671551 496.0
15.225382820 505.0
15.242094089 478.0
15.258805358 546.0
15.275516627 554.0
15.292227896 547.0
15.308939165 513.0
15.325650434 555.0
15.342361703 594.0
15.359072972 603.0
15.375784241 622.0
15.392495510 672.0
15.409206779 704.0
15.425918048 811.0
15.442629317 885.0
15.459340586 919.0
15.476051855 1034.0
15.492763124 1158.0
15.509474393 1394.0
15.526185662 1726.0
15.542896931 2031.0
15.559608200 2308.0
15.576319469 2166.0
15.593030738 1929.0
15.609742007 1556.0
15.626453276 1198.0
15.643164545 879.0
15.659875814 761.0
15.676587083 669.0
15.693298352 667.0
15.710009621 623.0
15.726720890 581.0
15.743432159 569.0
15.760143428 621.0
15.776854697 608.0
15.793565966 659.0
15.810277235 647.0
15.826988503 612.0
15.843699772 610.0
15.860411041 639.0
15.877122310 617.0
15.893833579 596.0
15.910544848 572.0
15.927256117 604.0
15.943967386 544.0
15.960678655 590.0
15.977389924 530.0
15.994101193 531.0
16.010812462 545.0
16.027523731 544.0
16.044235000 600.0
16.060946269 535.0
16.077657538 563.0
16.094368807 512.0
16.111080076 568.0
16.127791345 529.0
16.144502614 509.0
16.161213883 520.0
16.177925152 516.0
16.194636421 508.0
16.211347690 533.0
16.228058959 578.0
16.244770228 536.0
16.261481497 525.0
16.278192766 540.0
16.294904035 533.0
16.311615304 517.0
16.328326573 526.0
16.345037842 517.0
16.361749111 528.0
16.378460380 544.0
16.395171649 530.0
16.411882918 563.0
16.428594187 495.0
16.445305456 548.0
16.462016725 515.0
16.478727994 533.0
16.495439263 496.0
16.512150532 552.0
16.528861801 558.0
16.545573070 519.0
16.562284339 547.0
16.578995608 537.0
16.595706877 545.0
16.612418145 515.0
16.629129414 514.0
16.645840683 560.0
16.662551952 534.0
16.679263221 535.0
16.695974490 520.0
16.712685759 526.0
16.729397028 510.0
16.746108297 570.0
16.762819566 550.0
16.779530835 511.0
16.796242104 515.0
16.812953373 510.0
16.829664642 550.0
16.846375911 527.0
16.863087180 481.0
16.879798449 550.0
16.896509718 553.0
16.913220987 529.0
16.929932256 507.0
16.946643525 514.0
16.963354794 546.0
16.980066063 504.0
16.996777332 511.0
17.013488601 507.0
17.030199870 520.0
17.046911139 492.0
17.063622408 493.0
17.080333677 512.0
17.097044946 495.0
17.113756215 531.0
17.130467484 466.0
17.147178753 516.0
17.163890022 511.0
17.180601291 539.0
17.197312560 498.0
17.214023829 477.0
17.230735098 529.0
17.247446367 474.0
17.264157636 528.0
17.280868905 492.0
17.297580174 514.0
17.314291443 511.0
17.331002712 491.0
17.347713981 533.0
17.364425250 485.0
17.381136518 548.0
17.397847787 542.0
17.414559056 511.0
17.431270325 515.0
17.447981594 555.0
17.464692863 522.0
17.481404132 535.0
17.498115401 539.0
17.514826670 531.0
17.531537939 550.0
17.548249208 548.0
17.564960477 556.0
17.581671746 551.0
17.598383015 592.0
17.615094284 558.0
17.631805553 587.0
17.648516822 586.0
17.665228091 611.0
17.681939360 603.0
17.698650629 582.0
17.715361898 564.0
17.732073167 553.0
17.748784436 553.0
17.765495705 496.0
17.782206974 535.0
17.798918243 497.0
17.815629512 525.0
17.832340781 553.0
17.849052050 488.0
17.865763319 497.0
17.882474588 504.0
17.899185857 527.0
17.915897126 513.0
17.932608395 508.0
17.949319664 491.0
17.966030933 507.0
17.982742202 577.0
17.999453471 550.0
18.016164740 561.0
18.032876009 518.0
18.049587278 554.0
18.066298547 553.0
18.083009816 522.0
18.099721085 550.0
18.116432354 510.0
18.133143623 535.0
18.149854891 569.0
18.166566160 522.0
18.183277429 512.0
18.199988698 544.0
18.216699967 563.0
18.233411236 558.0
18.250122505 527.0
18.266833774 526.0
18.283545043 539.0
18.300256312 568.0
18.316967581 559.0
18.333678850 582.0
18.350390119 565.0
18.367101388 585.0
18.383812657 536.0
18.400523926 513.0
18.417235195 566.0
18.433946464 557.0
18.450657733 548.0
18.467369002 566.0
18.484080271 612.0
18.500791540 538.0
18.517502809 597.0
18.534214078 582.0
18.550925347 629.0
18.567636616 551.0
18.584347885 579.0
18.601059154 632.0
18.617770423 607.0
18.634481692 675.0
18.651192961 701.0
18.667904230 712.0
18.684615499 821.0
18.701326768 897.0
18.718038037 987.0
18.734749306 1034.0
18.751460575 957.0
18.768171844 890.0
18.784883113 736.0
18.801594382 748.0
18.818305651 687.0
18.835016920 610.0
18.851728189 571.0
18.868439458 607.0
18.885150727 614.0
18.901861996 588.0
18.918573265 534.0
18.935284533 616.0
18.951995802 608.0
18.968707071 616.0
18.985418340 600.0
19.002129609 626.0
19.018840878 584.0
19.035552147 597.0
19.052263416 609.0
19.068974685 651.0
19.085685954 620.0
19.102397223 640.0
19.119108492 600.0
19.135819761 641.0
19.152531030 581.0
19.169242299 626.0
19.185953568 588.0
19.202664837 635.0
19.219376106 617.0
19.236087375 630.0
19.252798644 638.0
19.269509913 608.0
19.286221182 613.0
19.302932451 616.0
19.319643720 626.0
19.336354989 665.0
19.353066258 668.0
19.369777527 640.0
19.386488796 661.0
19.403200065 607.0
19.419911334 642.0
19.436622603 659.0
19.453333872 751.0
19.470045141 827.0
19.486756410 872.0
19.503467679 887.0
19.520178948 1118.0
19.536890217 1111.0
19.553601486 1320.0
19.570312755 1335.0
19.587024024 1188.0
19.603735293 1142.0
19.620446562 944.0
19.637157831 843.0
19.653869100 776.0
19.670580369 738.0
19.687291638 636.0
19.704002906 641.0
19.720714175 667.0
19.737425444 635.0
19.754136713 659.0
19.770847982 603.0
19.787559251 641.0
19.804270520 640.0
19.820981789 610.0
19.837693058 605.0
19.854404327 614.0
19.871115596 645.0
19.887826865 607.0
19.904538134 611.0
19.921249403 626.0
19.937960672 622.0
19.954671941 617.0
19.971383210 616.0
19.988094479 675.0
20.004805748 660.0
20.021517017 671.0
20.038228286 654.0
20.054939555 643.0
20.071650824 582.0
20.088362093 661.0
20.105073362 663.0
20.121784631 630.0
20.138495900 643.0
20.155207169 653.0
20.171918438 647.0
20.188629707 669.0
20.205340976 662.0
20.222052245 658.0
20.238763514 666.0
20.255474783 607.0
20.272186052 646.0
20.288897321 612.0
20.305608590 647.0
20.322319859 627.0
20.339031128 646.0
20.355742397 638.0
20.372453666 668.0
20.389164935 655.0
20.405876204 657.0
20.422587473 643.0
20.439298742 626.0
20.456010011 637.0
20.472721280 613.0
20.489432548 673.0
20.506143817 638.0
20.522855086 673.0
20.539566355 680.0
20.556277624 666.0
20.572988893 611.0
20.589700162 679.0
20.606411431 685.0
20.623122700 645.0
20.639833969 709.0
20.656545238 654.0
20.673256507 665.0
20.689967776 609.0
20.706679045 709.0
20.723390314 684.0
20.740101583 700.0
20.756812852 617.0
20.773524121 718.0
20.790235390 680.0
20.806946659 639.0
20.823657928 689.0
20.840369197 684.0
20.857080466 694.0
20.873791735 667.0
20.890503004 697.0
20.907214273 646.0
20.923925542 666.0
20.940636811 696.0
20.957348080 687.0
20.974059349 682.0
20.990770618 666.0
21.007481887 656.0
21.024193156 643.0
21.040904425 676.0
21.057615694 716.0
21.074326963 709.0
21.091038232 687.0
21.107749501 693.0
21.124460770 700.0
21.141172039 762.0
21.157883308 714.0
21.174594577 637.0
21.191305846 670.0
21.208017115 653.0
21.224728384 682.0
21.241439653 731.0
21.258150921 682.0
21.274862190 669.0
21.291573459 717.0
21.308284728 690.0
21.324995997 705.0
21.341707266 708.0
21.358418535 711.0
21.375129804 655.0
21.391841073 696.0
21.408552342 702.0
21.425263611 725.0
21.441974880 635.0
21.458686149 706.0
21.475397418 712.0
21.492108687 755.0
21.508819956 712.0
21.525531225 685.0
21.542242494 707.0
21.558953763 739.0
21.575665032 731.0
21.592376301 737.0
21.609087570 777.0
21.625798839 750.0
21.642510108 786.0
21.659221377 827.0
21.675932646 804.0
21.692643915 843.0
21.709355184 810.0
21.726066453 803.0
21.742777722 796.0
21.759488991 817.0
21.776200260 865.0
21.792911529 871.0
21.809622798 944.0
21.826334067 956.0
21.843045336 1055.0
21.859756605 1114.0
21.876467874 1123.0
21.893179143 1167.0
21.909890412 1098.0
21.926601681 988.0
21.943312950 963.0
21.960024219 866.0
21.976735488 848.0
21.993446757 766.0
22.010158026 823.0
22.026869295 842.0
22.043580563 839.0
22.060291832 791.0
22.077003101 778.0
22.093714370 780.0
22.110425639 739.0
22.127136908 752.0
22.143848177 748.0
22.160559446 776.0
22.177270715 769.0
22.193981984 779.0
22.210693253 801.0
22.227404522 869.0
22.244115791 879.0
22.260827060 902.0
22.277538329 924.0
22.294249598 980.0
22.310960867 1066.0
22.327672136 1185.0
22.344383405 1309.0
22.361094674 1566.0
22.377805943 1777.0
22.394517212 1876.0
22.411228481 1697.0
22.427939750 1567.0
22.444651019 1447.0
22.461362288 1235.0
22.478073557 1033.0
22.494784826 1010.0
22.511496095 882.0
22.528207364 797.0
22.544918633 810.0
22.561629902 807.0
22.578341171 742.0
22.595052440 768.0
22.611763709 738.0
22.628474978 782.0
22.645186247 736.0
22.661897516 757.0
22.678608785 715.0
22.695320054 679.0
22.712031323 743.0
22.728742592 781.0
22.745453861 743.0
22.762165130 712.0
22.778876399 721.0
22.795587668 707.0
22.812298936 716.0
22.829010205 672.0
22.845721474 775.0
22.862432743 736.0
22.879144012 712.0
22.895855281 768.0
22.912566550 764.0
22.929277819 708.0
22.945989088 775.0
22.962700357 730.0
22.979411626 712.0
22.996122895 756.0
23.012834164 763.0
23.029545433 783.0
23.046256702 752.0
23.062967971 789.0
23.079679240 831.0
23.096390509 732.0
23.113101778 748.0
23.129813047 709.0
23.146524316 682.0
23.163235585 743.0
23.179946854 753.0
23.196658123 778.0
23.213369392 702.0
23.230080661 747.0
23.246791930 723.0
23.263503199 748.0
23.280214468 713.0
23.296925737 711.0
23.313637006 747.0
23.330348275 737.0
23.347059544 690.0
23.363770813 758.0
23.380482082 705.0
23.397193351 734.0
23.413904620 765.0
23.430615889 718.0
23.447327158 717.0
23.464038427 788.0
23.480749696 686.0
23.497460965 744.0
23.514172234 711.0
23.530883503 719.0
23.547594772 763.0
23.564306041 756.0
23.581017310 781.0
23.597728578 742.0
23.614439847 730.0
23.631151116 748.0
23.647862385 729.0
23.664573654 718.0
23.681284923 708.0
23.697996192 725.0
23.714707461 768.0
23.731418730 743.0
23.748129999 767.0
23.764841268 739.0
23.781552537 711.0
23.798263806 703.0
23.814975075 730.0
23.831686344 738.0
23.848397613 671.0
23.865108882 737.0
23.881820151 732.0
23.898531420 757.0
23.915242689 701.0
23.931953958 750.0
23.948665227 706.0
23.965376496 692.0
23.982087765 695.0
23.998799034 733.0
24.015510303 715.0
24.032221572 733.0
24.048932841 717.0
24.065644110 702.0
24.082355379 725.0
24.099066648 685.0
24.115777917 697.0
24.132489186 676.0
24.149200455 687.0
24.165911724 705.0
24.182622993 748.0
24.199334262 725.0
24.216045531 776.0
24.232756800 722.0
24.249468069 738.0
24.266179338 709.0
24.282890607 762.0
24.299601876 715.0
24.316313145 807.0
24.333024414 762.0
24.349735683 803.0
24.366446951 814.0
24.383158220 899.0
24.399869489 978.0
24.416580758 987.0
24.433292027 1134.0
24.450003296 1257.0
24.466714565 1153.0
24.483425834 943.0
24.500137103 1019.0
24.516848372 990.0
24.533559641 827.0
24.550270910 843.0
24.566982179 805.0
24.583693448 755.0
24.600404717 767.0
24.617115986 773.0
24.633827255 732.0
24.650538524 773.0
24.667249793 736.0
24.683961062 672.0
24.700672331 756.0
24.717383600 687.0
24.734094869 710.0
24.750806138 734.0
24.767517407 783.0
24.784228676 736.0
24.800939945 790.0
24.817651214 800.0
24.834362483 805.0
24.851073752 820.0
24.867785021 827.0
24.884496290 812.0
24.901207559 871.0
24.917918828 916.0
24.934630097 917.0
24.951341366 1006.0
24.968052635 1144.0
24.984763904 1218.0
25.001475173 1356.0
25.018186442 1308.0
25.034897711 1195.0
25.051608980 1100.0
25.068320249 1060.0
25.085031518 1093.0
25.101742787 947.0
25.118454056 909.0
25.135165325 861.0
25.151876593 804.0
25.168587862 740.0
25.185299131 770.0
25.202010400 757.0
25.218721669 827.0
25.235432938 781.0
25.252144207 807.0
25.268855476 733.0
25.285566745 778.0
25.302278014 775.0
25.318989283 743.0
25.335700552 810.0
25.352411821 766.0
25.369123090 841.0
25.385834359 805.0
25.402545628 803.0
25.419256897 834.0
25.435968166 822.0
25.452679435 818.0
25.469390704 897.0
25.486101973 879.0
25.502813242 907.0
25.519524511 968.0
25.536235780 1008.0
25.552947049 948.0
25.569658318 924.0
25.586369587 962.0
25.603080856 920.0
25.619792125 899.0
25.636503394 922.0
25.653214663 874.0
25.669925932 903.0
25.686637201 920.0
25.703348470 947.0
25.720059739 930.0
25.736771008 944.0
25.753482277 964.0
25.770193546 961.0
25.786904815 1065.0
25.803616084 1014.0
25.820327353 1070.0
25.837038622 1139.0
25.853749891 1132.0
25.870461160 1081.0
25.887172429 1177.0
25.903883698 1281.0
25.920594966 1269.0
25.937306235 1317.0
25.954017504 1447.0
25.970728773 1453.0
25.987440042 1557.0
26.004151311 1668.0
26.020862580 1724.0
26.037573849 1884.0
26.054285118 1920.0
26.070996387 1974.0
26.087707656 2291.0
26.104418925 2418.0
26.121130194 2511.0
26.137841463 2706.0
26.154552732 2932.0
26.171264001 3162.0
26.187975270 3391.0
26.204686539 3616.0
26.221397808 4007.0
26.238109077 4306.0
26.254820346 4553.0
26.271531615 4878.0
26.288242884 5140.0
26.304954153 5463.0
26.321665422 5491.0
26.338376691 5819.0
26.355087960 5693.0
26.371799229 5731.0
26.388510498 5520.0
26.405221767 5242.0
26.421933036 5034.0
26.438644305 4684.0
26.455355574 4250.0
26.472066843 3835.0
26.488778112 3391.0
26.505489381 3214.0
26.522200650 2895.0
26.538911919 2713.0
26.555623188 2522.0
26.572334457 2471.0
26.589045726 2285.0
26.605756995 2255.0
26.622468264 2166.0
26.639179533 2106.0
26.655890802 1998.0
26.672602071 1986.0
26.689313340 1849.0
26.706024608 1961.0
26.722735877 1804.0
26.739447146 1673.0
26.756158415 1684.0
26.772869684 1529.0
26.789580953 1456.0
26.806292222 1347.0
26.823003491 1362.0
26.839714760 1248.0
26.856426029 1203.0
26.873137298 1144.0
26.889848567 1103.0
26.906559836 1085.0
26.923271105 988.0
26.939982374 995.0
26.956693643 978.0
26.973404912 874.0
26.990116181 893.0
27.006827450 859.0
27.023538719 840.0
27.040249988 760.0
27.056961257 788.0
27.073672526 720.0
27.090383795 751.0
27.107095064 729.0
27.123806333 755.0
27.140517602 728.0
27.157228871 698.0
27.173940140 723.0
27.190651409 702.0
27.207362678 708.0
27.224073947 713.0
27.240785216 640.0
27.257496485 715.0
27.274207754 667.0
27.290919023 679.0
27.307630292 730.0
27.324341561 682.0
27.341052830 708.0
27.357764099 719.0
27.374475368 717.0
27.391186637 756.0
27.407897906 759.0
27.424609175 760.0
27.441320444 830.0
27.458031713 915.0
27.474742981 1001.0
27.491454250 1061.0
27.508165519 1235.0
27.524876788 1495.0
27.541588057 1778.0
27.558299326 1903.0
27.575010595 1892.0
27.591721864 1649.0
27.608433133 1516.0
27.625144402 1443.0
27.641855671 1303.0
27.658566940 1123.0
27.675278209 984.0
27.691989478 802.0
27.708700747 751.0
27.725412016 786.0
27.742123285 747.0
27.758834554 707.0
27.775545823 688.0
27.792257092 667.0
27.808968361 647.0
27.825679630 670.0
27.842390899 742.0
27.859102168 715.0
27.875813437 704.0
27.892524706 732.0
27.909235975 897.0
27.925947244 902.0
27.942658513 941.0
27.959369782 1060.0
27.976081051 1218.0
27.992792320 1238.0
28.009503589 1188.0
28.026214858 1102.0
28.042926127 1041.0
28.059637396 1045.0
28.076348665 1004.0
28.093059934 883.0
28.109771203 833.0
28.126482472 801.0
28.143193741 775.0
28.159905010 745.0
28.176616279 793.0
28.193327548 784.0
28.210038817 829.0
28.226750086 768.0
28.243461355 796.0
28.260172623 871.0
28.276883892 821.0
28.293595161 795.0
28.310306430 851.0
28.327017699 802.0
28.343728968 786.0
28.360440237 739.0
28.377151506 790.0
28.393862775 706.0
28.410574044 677.0
28.427285313 687.0
28.443996582 628.0
28.460707851 661.0
28.477419120 580.0
28.494130389 642.0
28.510841658 581.0
28.527552927 597.0
28.544264196 620.0
28.560975465 625.0
28.577686734 623.0
28.594398003 597.0
28.611109272 571.0
28.627820541 622.0
28.644531810 682.0
28.661243079 628.0
28.677954348 682.0
28.694665617 704.0
28.711376886 751.0
28.728088155 782.0
28.744799424 847.0
28.761510693 947.0
28.778221962 1042.0
28.794933231 1098.0
28.811644500 1093.0
28.828355769 1004.0
28.845067038 961.0
28.861778307 957.0
28.878489576 814.0
28.895200845 813.0
28.911912114 693.0
28.928623383 686.0
28.945334652 670.0
28.962045921 657.0
28.978757190 608.0
28.995468459 586.0
29.012179728 607.0
29.028890996 583.0
29.045602265 576.0
29.062313534 583.0
29.079024803 611.0
29.095736072 567.0
29.112447341 603.0
29.129158610 575.0
29.145869879 598.0
29.162581148 609.0
29.179292417 596.0
29.196003686 672.0
29.212714955 665.0
29.229426224 705.0
29.246137493 804.0
29.262848762 865.0
29.279560031 962.0
29.296271300 1148.0
29.312982569 1194.0
29.329693838 1444.0
29.346405107 1591.0
29.363116376 1716.0
29.379827645 1662.0
29.396538914 1489.0
29.413250183 1282.0
29.429961452 1259.0
29.446672721 1148.0
29.463383990 972.0
29.480095259 821.0
29.496806528 770.0
29.513517797 686.0
29.530229066 651.0
29.546940335 605.0
29.563651604 601.0
29.580362873 544.0
29.597074142 515.0
29.613785411 515.0
29.630496680 494.0
29.647207949 531.0
29.663919218 546.0
29.680630487 512.0
29.697341756 527.0
29.714053025 510.0
29.730764294 544.0
29.747475563 539.0
29.764186832 547.0
29.780898101 557.0
29.797609370 505.0
29.814320638 576.0
29.831031907 569.0
29.847743176 554.0
29.864454445 556.0
29.881165714 559.0
29.897876983 554.0
29.914588252 561.0
29.931299521 543.0
29.948010790 582.0
29.964722059 565.0
29.981433328 612.0
29.998144597 587.0
30.014855866 533.0
30.031567135 560.0
30.048278404 560.0
30.064989673 593.0
30.081700942 579.0
30.098412211 531.0
30.115123480 579.0
30.131834749 600.0
30.148546018 604.0
30.165257287 623.0
30.181968556 598.0
30.198679825 694.0
30.215391094 643.0
30.232102363 704.0
30.248813632 744.0
30.265524901 856.0
30.282236170 1064.0
30.298947439 1060.0
30.315658708 1073.0
30.332369977 1035.0
30.349081246 930.0
30.365792515 928.0
30.382503784 824.0
30.399215053 776.0
30.415926322 698.0
30.432637591 670.0
30.449348860 620.0
30.466060129 552.0
30.482771398 565.0
30.499482667 508.0
30.516193936 505.0
30.532905205 532.0
30.549616474 482.0
30.566327743 504.0
30.583039011 517.0
30.599750280 490.0
30.616461549 515.0
30.633172818 480.0
30.649884087 482.0
30.666595356 499.0
30.683306625 494.0
30.700017894 491.0
30.716729163 529.0
30.733440432 544.0
30.750151701 511.0
30.766862970 520.0
30.783574239 570.0
30.800285508 540.0
30.816996777 537.0
30.833708046 563.0
30.850419315 573.0
30.867130584 557.0
30.883841853 608.0
30.900553122 647.0
30.917264391 712.0
30.933975660 771.0
30.950686929 802.0
30.967398198 876.0
30.984109467 942.0
31.000820736 849.0
31.017532005 814.0
31.034243274 803.0
31.050954543 758.0
31.067665812 702.0
31.084377081 676.0
31.101088350 604.0
31.117799619 572.0
31.134510888 557.0
31.151222157 470.0
31.167933426 447.0
31.184644695 486.0
31.201355964 428.0
31.218067233 461.0
31.234778502 455.0
31.251489771 460.0
31.268201040 461.0
31.284912309 493.0
31.301623578 503.0
31.318334847 467.0
31.335046116 459.0
31.351757385 527.0
31.368468653 542.0
31.385179922 582.0
31.401891191 663.0
31.418602460 651.0
31.435313729 701.0
31.452024998 722.0
31.468736267 777.0
31.485447536 762.0
31.502158805 694.0
31.518870074 685.0
31.535581343 639.0
31.552292612 664.0
31.569003881 541.0
31.585715150 577.0
31.602426419 516.0
31.619137688 529.0
31.635848957 486.0
31.652560226 488.0
31.669271495 482.0
31.685982764 408.0
31.702694033 416.0
31.719405302 452.0
31.736116571 420.0
31.752827840 426.0
31.769539109 393.0
31.786250378 456.0
31.802961647 387.0
31.819672916 403.0
31.836384185 373.0
31.853095454 414.0
31.869806723 371.0
31.886517992 424.0
31.903229261 415.0
31.919940530 408.0
31.936651799 361.0
31.953363068 395.0
31.970074337 464.0
31.986785606 392.0
32.003496875 376.0
32.020208144 402.0
32.036919413 375.0
32.053630682 393.0
32.070341951 449.0
32.087053220 412.0
32.103764489 379.0
32.120475758 390.0
32.137187026 398.0
32.153898295 430.0
32.170609564 397.0
32.187320833 387.0
32.204032102 396.0
32.220743371 391.0
32.237454640 383.0
32.254165909 368.0
32.270877178 394.0
32.287588447 428.0
32.304299716 415.0
32.321010985 359.0
32.337722254 406.0
32.354433523 402.0
32.371144792 394.0
32.387856061 379.0
32.404567330 365.0
32.421278599 402.0
32.437989868 419.0
32.454701137 381.0
32.471412406 397.0
32.488123675 417.0
32.504834944 431.0
32.521546213 371.0
32.538257482 432.0
32.554968751 420.0
32.571680020 426.0
32.588391289 445.0
32.605102558 495.0
32.621813827 479.0
32.638525096 464.0
32.655236365 520.0
32.671947634 593.0
32.688658903 648.0
32.705370172 782.0
32.722081441 898.0
32.738792710 1001.0
32.755503979 1042.0
32.772215248 1065.0
32.788926517 936.0
32.805637786 859.0
32.822349055 787.0
32.839060324 745.0
32.855771593 720.0
32.872482862 659.0
32.889194131 496.0
32.905905400 514.0
32.922616668 452.0
32.939327937 430.0
32.956039206 463.0
32.972750475 407.0
32.989461744 410.0
33.006173013 418.0
33.022884282 409.0
33.039595551 409.0
33.056306820 396.0
33.073018089 409.0
33.089729358 376.0
33.106440627 418.0
33.123151896 380.0
33.139863165 436.0
33.156574434 430.0
33.173285703 426.0
33.189996972 344.0
33.206708241 390.0
33.223419510 381.0
33.240130779 375.0
33.256842048 385.0
33.273553317 428.0
33.290264586 389.0
33.306975855 387.0
33.323687124 420.0
33.340398393 410.0
33.357109662 420.0
33.373820931 422.0
33.390532200 394.0
33.407243469 394.0
33.423954738 435.0
33.440666007 403.0
33.457377276 406.0
33.474088545 499.0
33.490799814 522.0
33.507511083 610.0
33.524222352 651.0
33.540933621 619.0
33.557644890 656.0
33.574356159 623.0
33.591067428 571.0
33.607778697 528.0
33.624489966 547.0
33.641201235 555.0
33.657912504 519.0
33.674623773 522.0
33.691335041 469.0
33.708046310 432.0
33.724757579 454.0
33.741468848 446.0
33.758180117 432.0
33.774891386 443.0
33.791602655 455.0
33.808313924 430.0
33.825025193 405.0
33.841736462 470.0
33.858447731 423.0
33.875159000 465.0
33.891870269 479.0
33.908581538 507.0
33.925292807 483.0
33.942004076 536.0
33.958715345 656.0
33.975426614 729.0
33.992137883 901.0
34.008849152 1012.0
34.025560421 1061.0
34.042271690 1172.0
34.058982959 1133.0
34.075694228 1062.0
34.092405497 989.0
34.109116766 921.0
34.125828035 890.0
34.142539304 828.0
34.159250573 704.0
34.175961842 670.0
34.192673111 589.0
34.209384380 570.0
34.226095649 525.0
34.242806918 487.0
34.259518187 445.0
34.276229456 462.0
34.292940725 458.0
34.309651994 420.0
34.326363263 447.0
34.343074532 428.0
34.359785801 452.0
34.376497070 413.0
34.393208339 414.0
34.409919608 393.0
34.426630877 413.0
34.443342146 462.0
34.460053414 452.0
34.476764683 434.0
34.493475952 433.0
34.510187221 418.0
34.526898490 409.0
34.543609759 419.0
34.560321028 417.0
34.577032297 440.0
34.593743566 476.0
34.610454835 400.0
34.627166104 431.0
34.643877373 410.0
34.660588642 442.0
34.677299911 504.0
34.694011180 515.0
34.710722449 583.0
34.727433718 556.0
34.744144987 548.0
34.760856256 502.0
34.777567525 479.0
34.794278794 471.0
34.810990063 497.0
34.827701332 428.0
34.844412601 452.0
34.861123870 396.0
34.877835139 412.0
34.894546408 415.0
34.911257677 393.0
34.927968946 390.0
34.944680215 442.0
34.961391484 443.0
34.978102753 418.0
34.994814022 415.0
35.011525291 416.0
35.028236560 421.0
35.044947829 403.0
35.061659098 451.0
35.078370367 435.0
35.095081636 444.0
35.111792905 406.0
35.128504174 464.0
35.145215443 477.0
35.161926712 439.0
35.178637981 479.0
35.195349250 426.0
35.212060519 440.0
35.228771788 460.0
35.245483056 437.0
35.262194325 432.0
35.278905594 409.0
35.295616863 352.0
35.312328132 401.0
35.329039401 403.0
35.345750670 389.0
35.362461939 375.0
35.379173208 334.0
35.395884477 329.0
35.412595746 335.0
35.429307015 337.0
35.446018284 353.0
35.462729553 365.0
35.479440822 335.0
35.496152091 311.0
35.512863360 343.0
35.529574629 343.0
35.546285898 325.0
35.562997167 335.0
35.579708436 341.0
35.596419705 348.0
35.613130974 372.0
35.629842243 298.0
35.646553512 339.0
35.663264781 375.0
35.679976050 331.0
35.696687319 358.0
35.713398588 363.0
35.730109857 334.0
35.746821126 313.0
35.763532395 375.0
35.780243664 379.0
35.796954933 378.0
35.813666202 390.0
35.830377471 361.0
35.847088740 385.0
35.863800009 384.0
35.880511278 416.0
35.897222547 411.0
35.913933816 390.0
35.930645085 401.0
35.947356354 387.0
35.964067623 378.0
35.980778892 377.0
35.997490161 355.0
36.014201429 373.0
36.030912698 347.0
36.047623967 327.0
36.064335236 376.0
36.081046505 382.0
36.097757774 332.0
36.114469043 360.0
36.131180312 325.0
36.147891581 308.0
36.164602850 358.0
36.181314119 358.0
36.198025388 332.0
36.214736657 338.0
36.231447926 352.0
36.248159195 342.0
36.264870464 334.0
36.281581733 355.0
36.298293002 320.0
36.315004271 332.0
36.331715540 354.0
36.348426809 340.0
36.365138078 346.0
36.381849347 340.0
36.398560616 375.0
36.415271885 372.0
36.431983154 367.0
36.448694423 369.0
36.465405692 378.0
36.482116961 383.0
36.498828230 403.0
36.515539499 389.0
36.532250768 409.0
36.548962037 380.0
36.565673306 408.0
36.582384575 411.0
36.599095844 390.0
36.615807113 431.0
36.632518382 387.0
36.649229651 400.0
36.665940920 334.0
36.682652189 338.0
36.699363458 354.0
36.716074727 358.0
36.732785996 343.0
36.749497265 368.0
36.766208534 312.0
36.782919803 343.0
36.799631071 341.0
36.816342340 333.0
36.833053609 373.0
36.849764878 364.0
36.866476147 344.0
36.883187416 370.0
36.899898685 406.0
36.916609954 412.0
36.933321223 347.0
36.950032492 392.0
36.966743761 457.0
36.983455030 465.0
37.000166299 532.0
37.016877568 614.0
37.033588837 625.0
37.050300106 703.0
37.067011375 695.0
37.083722644 605.0
37.100433913 501.0
37.117145182 540.0
37.133856451 534.0
37.150567720 554.0
37.167278989 456.0
37.183990258 415.0
37.200701527 390.0
37.217412796 365.0
37.234124065 335.0
37.250835334 357.0
37.267546603 342.0
37.284257872 317.0
37.300969141 329.0
37.317680410 307.0
37.334391679 311.0
37.351102948 300.0
37.367814217 315.0
37.384525486 276.0
37.401236755 326.0
37.417948024 331.0
37.434659293 307.0
37.451370562 306.0
37.468081831 308.0
37.484793100 354.0
37.501504369 311.0
37.518215638 332.0
37.534926907 325.0
37.551638176 322.0
37.568349444 365.0
37.585060713 359.0
37.601771982 355.0
37.618483251 357.0
37.635194520 313.0
37.651905789 367.0
37.668617058 331.0
37.685328327 326.0
37.702039596 327.0
37.718750865 362.0
37.735462134 386.0
37.752173403 381.0
37.768884672 354.0
37.785595941 340.0
37.802307210 361.0
37.819018479 346.0
37.835729748 343.0
37.852441017 334.0
37.869152286 352.0
37.885863555 341.0
37.902574824 328.0
37.919286093 332.0
37.935997362 351.0
37.952708631 309.0
37.969419900 309.0
37.986131169 290.0
38.002842438 338.0
38.019553707 354.0
38.036264976 326.0
38.052976245 316.0
38.069687514 336.0
38.086398783 341.0
38.103110052 320.0
38.119821321 335.0
38.136532590 338.0
38.153243859 308.0
38.169955128 315.0
38.186666397 312.0
38.203377666 335.0
38.220088935 326.0
38.236800204 341.0
38.253511473 313.0
38.270222742 332.0
38.286934011 326.0
38.303645280 344.0
38.320356549 329.0
38.337067818 329.0
38.353779086 358.0
38.370490355 355.0
38.387201624 330.0
38.403912893 370.0
38.420624162 365.0
38.437335431 372.0
38.454046700 351.0
38.470757969 357.0
38.487469238 354.0
38.504180507 366.0
38.520891776 381.0
38.537603045 347.0
38.554314314 353.0
38.571025583 372.0
38.587736852 363.0
38.604448121 350.0
38.621159390 335.0
38.637870659 342.0
38.654581928 323.0
38.671293197 342.0
38.688004466 306.0
38.704715735 353.0
38.721427004 338.0
38.738138273 333.0
38.754849542 317.0
38.771560811 338.0
38.788272080 344.0
38.804983349 361.0
38.821694618 352.0
38.838405887 385.0
38.855117156 348.0
38.871828425 345.0
38.888539694 345.0
38.905250963 313.0
38.921962232 326.0
38.938673501 342.0
38.955384770 345.0
38.972096039 342.0
38.988807308 297.0
39.005518577 333.0
39.022229846 304.0
39.038941115 329.0
39.055652384 329.0
39.072363653 314.0
39.089074922 278.0
39.105786191 356.0
39.122497459 322.0
39.139208728 318.0
39.155919997 338.0
39.172631266 360.0
39.189342535 350.0
39.206053804 315.0
39.222765073 314.0
39.239476342 339.0
39.256187611 328.0
39.272898880 313.0
39.289610149 286.0
39.306321418 314.0
39.323032687 305.0
39.339743956 284.0
39.356455225 296.0
39.373166494 270.0
39.389877763 279.0
39.406589032 318.0
39.423300301 277.0
39.440011570 309.0
39.456722839 315.0
39.473434108 318.0
39.490145377 306.0
39.506856646 311.0
39.523567915 340.0
39.540279184 314.0
39.556990453 336.0
39.573701722 303.0
39.590412991 295.0
39.607124260 334.0
39.623835529 341.0
39.640546798 353.0
39.657258067 345.0
39.673969336 357.0
39.690680605 381.0
39.707391874 459.0
39.724103143 439.0
39.740814412 462.0
39.757525681 460.0
39.774236950 467.0
39.790948219 451.0
39.807659488 410.0
39.824370757 404.0
39.841082026 434.0
39.857793295 427.0
39.874504564 393.0
39.891215833 381.0
39.907927101 379.0
39.924638370 357.0
39.941349639 312.0
39.958060908 363.0
39.974772177 353.0
39.991483446 393.0
40.008194715 384.0
40.024905984 503.0
40.041617253 435.0
40.058328522 462.0
40.075039791 488.0
40.091751060 417.0
40.108462329 397.0
40.125173598 391.0
40.141884867 398.0
40.158596136 415.0
40.175307405 350.0
40.192018674 329.0
40.208729943 330.0
40.225441212 322.0
40.242152481 335.0
40.258863750 343.0
40.275575019 352.0
40.292286288 359.0
40.308997557 314.0
40.325708826 291.0
40.342420095 317.0
40.359131364 317.0
40.375842633 314.0
40.392553902 319.0
40.409265171 343.0
40.425976440 336.0
40.442687709 302.0
40.459398978 329.0
40.476110247 326.0
40.492821516 298.0
40.509532785 296.0
40.526244054 298.0
40.542955323 318.0
40.559666592 360.0
40.576377861 315.0
40.593089130 338.0
40.609800399 325.0
40.626511668 304.0
40.643222937 283.0
40.659934206 300.0
40.676645474 297.0
40.693356743 276.0
40.710068012 331.0
40.726779281 341.0
40.743490550 313.0
40.760201819 339.0
40.776913088 346.0
40.793624357 313.0
40.810335626 281.0
40.827046895 303.0
40.843758164 291.0
40.860469433 304.0
40.877180702 291.0
40.893891971 310.0
40.910603240 294.0
40.927314509 300.0
40.944025778 310.0
40.960737047 295.0
40.977448316 315.0
40.994159585 270.0
41.010870854 285.0
41.027582123 297.0
41.044293392 270.0
41.061004661 298.0
41.077715930 259.0
41.094427199 312.0
41.111138468 306.0
41.127849737 298.0
41.144561006 305.0
41.161272275 320.0
41.177983544 309.0
41.194694813 301.0
41.211406082 326.0
41.228117351 308.0
41.244828620 320.0
41.261539889 361.0
41.278251158 341.0
41.294962427 412.0
41.311673696 394.0
41.328384965 375.0
41.345096234 391.0
41.361807503 345.0
41.378518772 409.0
41.395230041 371.0
41.411941310 380.0
41.428652579 426.0
41.445363848 413.0
41.462075116 471.0
41.478786385 423.0
41.495497654 435.0
41.512208923 446.0
41.528920192 427.0
41.545631461 458.0
41.562342730 435.0
41.579053999 453.0
41.595765268 438.0
41.612476537 441.0
41.629187806 493.0
41.645899075 464.0
41.662610344 414.0
41.679321613 430.0
41.696032882 451.0
41.712744151 416.0
41.729455420 391.0
41.746166689 409.0
41.762877958 430.0
41.779589227 441.0
41.796300496 414.0
41.813011765 486.0
41.829723034 456.0
41.846434303 441.0
41.863145572 462.0
41.879856841 448.0
41.896568110 418.0
41.913279379 413.0
41.929990648 403.0
41.946701917 403.0
41.963413186 434.0
41.980124455 452.0
41.996835724 405.0
42.013546993 448.0
42.030258262 444.0
42.046969531 481.0
42.063680800 483.0
42.080392069 428.0
42.097103338 502.0
42.113814607 521.0
42.130525876 513.0
42.147237145 602.0
42.163948414 689.0
42.180659683 783.0
42.197370952 810.0
42.214082221 881.0
42.230793489 949.0
42.247504758 1045.0
42.264216027 1154.0
42.280927296 1311.0
42.297638565 1387.0
42.314349834 1411.0
42.331061103 1419.0
42.347772372 1417.0
42.364483641 1391.0
42.381194910 1346.0
42.397906179 1389.0
42.414617448 1389.0
42.431328717 1333.0
42.448039986 1271.0
42.464751255 1229.0
42.481462524 1129.0
42.498173793 1098.0
42.514885062 1054.0
42.531596331 960.0
42.548307600 1011.0
42.565018869 930.0
42.581730138 913.0
42.598441407 873.0
42.615152676 885.0
42.631863945 853.0
42.648575214 818.0
42.665286483 822.0
42.681997752 846.0
42.698709021 768.0
42.715420290 740.0
42.732131559 796.0
42.748842828 762.0
42.765554097 755.0
42.782265366 762.0
42.798976635 794.0
42.815687904 796.0
42.832399173 769.0
42.849110442 741.0
42.865821711 775.0
42.882532980 779.0
42.899244249 736.0
42.915955518 754.0
42.932666787 706.0
42.949378056 748.0
42.966089325 817.0
42.982800594 808.0
42.999511863 710.0
43.016223131 767.0
43.032934400 754.0
43.049645669 741.0
43.066356938 771.0
43.083068207 797.0
43.099779476 761.0
43.116490745 795.0
43.133202014 778.0
43.149913283 760.0
43.166624552 835.0
43.183335821 773.0
43.200047090 784.0
43.216758359 839.0
43.233469628 823.0
43.250180897 844.0
43.266892166 833.0
43.283603435 874.0
43.300314704 891.0
43.317025973 904.0
43.333737242 903.0
43.350448511 930.0
43.367159780 873.0
43.383871049 886.0
43.400582318 886.0
43.417293587 859.0
43.434004856 860.0
43.450716125 941.0
43.467427394 914.0
43.484138663 921.0
43.500849932 957.0
43.517561201 940.0
43.534272470 942.0
43.550983739 945.0
43.567695008 896.0
43.584406277 967.0
43.601117546 947.0
43.617828815 989.0
43.634540084 1022.0
43.651251353 1021.0
43.667962622 956.0
43.684673891 979.0
43.701385160 1065.0
43.718096429 991.0
43.734807698 1043.0
43.751518967 1034.0
43.768230236 1057.0
43.784941504 1104.0
43.801652773 1064.0
43.818364042 1030.0
43.835075311 1083.0
43.851786580 1066.0
43.868497849 1133.0
43.885209118 1158.0
43.901920387 1155.0
43.918631656 1153.0
43.935342925 1139.0
43.952054194 1121.0
43.968765463 1131.0
43.985476732 1220.0
44.002188001 1182.0
44.018899270 1212.0
44.035610539 1184.0
44.052321808 1226.0
44.069033077 1272.0
44.085744346 1289.0
44.102455615 1311.0
44.119166884 1311.0
44.135878153 1312.0
44.152589422 1319.0
44.169300691 1409.0
44.186011960 1286.0
44.202723229 1353.0
44.219434498 1392.0
44.236145767 1407.0
44.252857036 1441.0
44.269568305 1430.0
44.286279574 1451.0
44.302990843 1498.0
44.319702112 1553.0
44.336413381 1505.0
44.353124650 1466.0
44.369835919 1638.0
44.386547188 1596.0
44.403258457 1651.0
44.419969726 1801.0
44.436680995 1860.0
44.453392264 1843.0
44.470103533 1929.0
44.486814802 1988.0
44.503526071 1915.0
44.520237340 1929.0
44.536948609 1919.0
44.553659878 1874.0
44.570371146 1878.0
44.587082415 1921.0
44.603793684 1832.0
44.620504953 1726.0
44.637216222 1634.0
44.653927491 1634.0
44.670638760 1485.0
44.687350029 1485.0
44.704061298 1446.0
44.720772567 1376.0
44.737483836 1300.0
44.754195105 1253.0
44.770906374 1205.0
44.787617643 1172.0
44.804328912 1086.0
44.821040181 1097.0
44.837751450 1039.0
44.854462719 1135.0
44.871173988 1061.0
44.887885257 1027.0
44.904596526 1015.0
44.921307795 1044.0
44.938019064 1001.0
44.954730333 1008.0
44.971441602 948.0
44.988152871 913.0
45.004864140 918.0
45.021575409 916.0
45.038286678 860.0
45.054997947 949.0
45.071709216 922.0
45.088420485 858.0
45.105131754 844.0
45.121843023 876.0
45.138554292 823.0
45.155265561 803.0
45.171976830 840.0
45.188688099 753.0
45.205399368 740.0
45.222110637 739.0
45.238821906 755.0
45.255533175 803.0
45.272244444 748.0
45.288955713 736.0
45.305666982 742.0
45.322378251 759.0
45.339089519 720.0
45.355800788 733.0
45.372512057 709.0
45.389223326 668.0
45.405934595 682.0
45.422645864 684.0
45.439357133 717.0
45.456068402 644.0
45.472779671 672.0
45.489490940 639.0
45.506202209 635.0
45.522913478 688.0
45.539624747 650.0
45.556336016 593.0
45.573047285 657.0
45.589758554 581.0
45.606469823 626.0
45.623181092 600.0
45.639892361 584.0
45.656603630 613.0
45.673314899 570.0
45.690026168 570.0
45.706737437 609.0
45.723448706 637.0
45.740159975 598.0
45.756871244 578.0
45.773582513 604.0
45.790293782 530.0
45.807005051 628.0
45.823716320 543.0
45.840427589 545.0
45.857138858 596.0
45.873850127 614.0
45.890561396 578.0
45.907272665 543.0
45.923983934 563.0
45.940695203 495.0
45.957406472 517.0
45.974117741 546.0
45.990829010 501.0
46.007540279 572.0
46.024251548 542.0
46.040962817 518.0
46.057674086 515.0
46.074385355 485.0
46.091096624 494.0
46.107807893 504.0
46.124519161 476.0
46.141230430 474.0
46.157941699 461.0
46.174652968 470.0
46.191364237 458.0
46.208075506 476.0
46.224786775 460.0
46.241498044 440.0
46.258209313 446.0
46.274920582 464.0
46.291631851 434.0
46.308343120 465.0
46.325054389 439.0
46.341765658 479.0
46.358476927 451.0
46.375188196 407.0
46.391899465 423.0
46.408610734 430.0
46.425322003 407.0
46.442033272 415.0
46.458744541 430.0
46.475455810 422.0
46.492167079 427.0
46.508878348 447.0
46.525589617 423.0
46.542300886 433.0
46.559012155 429.0
46.575723424 479.0
46.592434693 486.0
46.609145962 432.0
46.625857231 409.0
46.642568500 420.0
46.659279769 430.0
46.675991038 377.0
46.692702307 393.0
46.709413576 418.0
46.726124845 437.0
46.742836114 380.0
46.759547383 403.0
46.776258652 376.0
46.792969921 362.0
46.809681190 438.0
46.826392459 378.0
46.843103728 405.0
46.859814997 422.0
46.876526266 357.0
46.893237534 377.0
46.909948803 414.0
46.926660072 394.0
46.943371341 403.0
46.960082610 383.0
46.976793879 409.0
46.993505148 375.0
47.010216417 398.0
47.026927686 370.0
47.043638955 379.0
47.060350224 400.0
47.077061493 426.0
47.093772762 397.0
47.110484031 421.0
47.127195300 421.0
47.143906569 422.0
47.160617838 376.0
47.177329107 434.0
47.194040376 413.0
47.210751645 397.0
47.227462914 380.0
47.244174183 443.0
47.260885452 432.0
47.277596721 456.0
47.294307990 494.0
47.311019259 483.0
47.327730528 458.0
47.344441797 516.0
47.361153066 501.0
47.377864335 514.0
47.394575604 507.0
47.411286873 476.0
47.427998142 434.0
47.444709411 467.0
47.461420680 462.0
47.478131949 467.0
47.494843218 423.0
47.511554487 430.0
47.528265756 417.0
47.544977025 400.0
47.561688294 393.0
47.578399563 385.0
47.595110832 390.0
47.611822101 431.0
47.628533370 364.0
47.645244639 388.0
47.661955908 391.0
47.678667176 378.0
47.695378445 371.0
47.712089714 361.0
47.728800983 363.0
47.745512252 352.0
47.762223521 366.0
47.778934790 403.0
47.795646059 360.0
47.812357328 394.0
47.829068597 386.0
47.845779866 361.0
47.862491135 353.0
47.879202404 356.0
47.895913673 396.0
47.912624942 420.0
47.929336211 403.0
47.946047480 436.0
47.962758749 453.0
47.979470018 480.0
47.996181287 490.0
48.012892556 532.0
48.029603825 496.0
48.046315094 467.0
48.063026363 451.0
48.079737632 440.0
48.096448901 424.0
48.113160170 412.0
48.129871439 405.0
48.146582708 434.0
48.163293977 385.0
48.180005246 436.0
48.196716515 376.0
48.213427784 343.0
48.230139053 389.0
48.246850322 403.0
48.263561591 378.0
48.280272860 406.0
48.296984129 440.0
48.313695398 415.0
48.330406667 466.0
48.347117936 488.0
48.363829205 486.0
48.380540474 498.0
48.397251743 503.0
48.413963012 486.0
48.430674281 477.0
48.447385549 452.0
48.464096818 443.0
48.480808087 456.0
48.497519356 435.0
48.514230625 456.0
48.530941894 434.0
48.547653163 389.0
48.564364432 394.0
48.581075701 409.0
48.597786970 373.0
48.614498239 398.0
48.631209508 385.0
48.647920777 360.0
48.664632046 402.0
48.681343315 391.0
48.698054584 404.0
48.714765853 400.0
48.731477122 438.0
48.748188391 388.0
48.764899660 444.0
48.781610929 408.0
48.798322198 394.0
48.815033467 387.0
48.831744736 380.0
48.848456005 419.0
48.865167274 430.0
48.881878543 385.0
48.898589812 390.0
48.915301081 398.0
48.932012350 370.0
48.948723619 386.0
48.965434888 362.0
48.982146157 333.0
48.998857426 343.0
49.015568695 391.0
49.032279964 355.0
49.048991233 354.0
49.065702502 330.0
49.082413771 375.0
49.099125040 330.0
49.115836309 336.0
49.132547578 329.0
49.149258847 367.0
49.165970116 325.0
49.182681385 347.0
49.199392654 377.0
49.216103923 314.0
49.232815191 356.0
49.249526460 327.0
49.266237729 339.0
49.282948998 363.0
49.299660267 376.0
49.316371536 369.0
49.333082805 381.0
49.349794074 377.0
49.366505343 383.0
49.383216612 422.0
49.399927881 394.0
49.416639150 365.0
49.433350419 345.0
49.450061688 368.0
49.466772957 384.0
49.483484226 337.0
49.500195495 401.0
49.516906764 371.0
49.533618033 341.0
49.550329302 377.0
49.567040571 334.0
49.583751840 350.0
49.600463109 373.0
49.617174378 340.0
49.633885647 330.0
49.650596916 346.0
49.667308185 347.0
49.684019454 365.0
49.700730723 350.0
49.717441992 408.0
49.734153261 381.0
49.750864530 444.0
49.767575799 483.0
49.784287068 453.0
49.800998337 503.0
49.817709606 484.0
49.834420875 532.0
49.851132144 523.0
49.867843413 466.0
49.884554682 497.0
49.901265951 431.0
49.917977220 428.0
49.934688489 439.0
49.951399758 449.0
49.968111027 468.0
49.984822296 455.0
50.001533564 476.0
50.018244833 432.0
50.034956102 367.0
50.051667371 362.0
50.068378640 362.0
50.085089909 365.0
50.101801178 353.0
50.118512447 347.0
50.135223716 326.0
50.151934985 333.0
50.168646254 331.0
50.185357523 347.0
50.202068792 333.0
50.218780061 343.0
50.235491330 362.0
50.252202599 327.0
50.268913868 366.0
50.285625137 336.0
50.302336406 380.0
50.319047675 322.0
50.335758944 337.0
50.352470213 332.0
50.369181482 347.0
50.385892751 308.0
50.402604020 361.0
50.419315289 326.0
50.436026558 308.0
50.452737827 342.0
50.469449096 350.0
50.486160365 331.0
50.502871634 296.0
50.519582903 313.0
50.536294172 319.0
50.553005441 333.0
50.569716710 350.0
50.586427979 346.0
50.603139248 368.0
50.619850517 346.0
50.636561786 320.0
50.653273055 337.0
50.669984324 323.0
50.686695593 364.0
50.703406862 294.0
50.720118131 333.0
50.736829400 316.0
50.753540669 327.0
50.770251937 341.0
50.786963206 329.0
50.803674475 390.0
50.820385744 321.0
50.837097013 322.0
50.853808282 313.0
50.870519551 313.0
50.887230820 327.0
50.903942089 307.0
50.920653358 326.0
50.937364627 348.0
50.954075896 292.0
50.970787165 332.0
50.987498434 287.0
51.004209703 301.0
51.020920972 292.0
51.037632241 308.0
51.054343510 311.0
51.071054779 318.0
51.087766048 337.0
51.104477317 300.0
51.121188586 317.0
51.137899855 334.0
51.154611124 306.0
51.171322393 311.0
51.188033662 330.0
51.204744931 310.0
51.221456200 312.0
51.238167469 343.0
51.254878738 282.0
51.271590007 352.0
51.288301276 323.0
51.305012545 333.0
51.321723814 387.0
51.338435083 388.0
51.355146352 371.0
51.371857621 360.0
51.388568890 400.0
51.405280159 391.0
51.421991428 361.0
51.438702697 366.0
51.455413966 377.0
51.472125235 381.0
51.488836504 369.0
51.505547773 391.0
51.522259042 390.0
51.538970311 357.0
51.555681579 352.0
51.572392848 351.0
51.589104117 343.0
51.605815386 338.0
51.622526655 327.0
51.639237924 343.0
51.655949193 338.0
51.672660462 317.0
51.689371731 335.0
51.706083000 341.0
51.722794269 329.0
51.739505538 346.0
51.756216807 332.0
51.772928076 332.0
51.789639345 306.0
51.806350614 303.0
51.823061883 328.0
51.839773152 318.0
51.856484421 319.0
51.873195690 352.0
51.889906959 365.0
51.906618228 325.0
51.923329497 367.0
51.940040766 388.0
51.956752035 326.0
51.973463304 390.0
51.990174573 352.0
52.006885842 361.0
52.023597111 367.0
52.040308380 334.0
52.057019649 354.0
52.073730918 384.0
52.090442187 336.0
52.107153456 317.0
52.123864725 347.0
52.140575994 322.0
52.157287263 336.0
52.173998532 336.0
52.190709801 319.0
52.207421070 343.0
52.224132339 304.0
52.240843608 293.0
52.257554877 321.0
52.274266146 331.0
52.290977415 309.0
52.307688684 317.0
52.324399952 315.0
52.341111221 355.0
52.357822490 337.0
52.374533759 343.0
52.391245028 369.0
52.407956297 407.0
52.424667566 368.0
52.441378835 383.0
52.458090104 352.0
52.474801373 364.0
52.491512642 359.0
52.508223911 341.0
52.524935180 377.0
52.541646449 327.0
52.558357718 372.0
52.575068987 352.0
52.591780256 363.0
52.608491525 379.0
52.625202794 340.0
52.641914063 325.0
52.658625332 378.0
52.675336601 368.0
52.692047870 334.0
52.708759139 361.0
52.725470408 343.0
52.742181677 341.0
52.758892946 320.0
52.775604215 330.0
52.792315484 325.0
52.809026753 312.0
52.825738022 315.0
52.842449291 294.0
52.859160560 316.0
52.875871829 319.0
52.892583098 319.0
52.909294367 360.0
52.926005636 367.0
52.942716905 290.0
52.959428174 290.0
52.976139443 315.0
52.992850712 333.0
53.009561981 309.0
53.026273250 317.0
53.042984519 332.0
53.059695788 325.0
53.076407057 330.0
53.093118326 352.0
53.109829594 340.0
53.126540863 332.0
53.143252132 376.0
53.159963401 377.0
53.176674670 346.0
53.193385939 379.0
53.210097208 372.0
53.226808477 482.0
53.243519746 447.0
53.260231015 403.0
53.276942284 455.0
53.293653553 386.0
53.310364822 431.0
53.327076091 417.0
53.343787360 387.0
53.360498629 416.0
53.377209898 384.0
53.393921167 337.0
53.410632436 362.0
53.427343705 368.0
53.444054974 389.0
53.460766243 356.0
53.477477512 372.0
53.494188781 395.0
53.510900050 348.0
53.527611319 384.0
53.544322588 358.0
53.561033857 355.0
53.577745126 315.0
53.594456395 358.0
53.611167664 313.0
53.627878933 347.0
53.644590202 363.0
53.661301471 362.0
53.678012740 381.0
53.694724009 365.0
53.711435278 388.0
53.728146547 387.0
53.744857816 350.0
53.761569085 412.0
53.778280354 420.0
53.794991623 385.0
53.811702892 441.0
53.828414161 437.0
53.845125430 457.0
53.861836699 410.0
53.878547967 444.0
53.895259236 531.0
53.911970505 531.0
53.928681774 534.0
53.945393043 552.0
53.962104312 560.0
53.978815581 572.0
53.995526850 617.0
54.012238119 620.0
54.028949388 623.0
54.045660657 627.0
54.062371926 621.0
54.079083195 716.0
54.095794464 735.0
54.112505733 702.0
54.129217002 778.0
54.145928271 769.0
54.162639540 757.0
54.179350809 784.0
54.196062078 779.0
54.212773347 735.0
54.229484616 778.0
54.246195885 760.0
54.262907154 785.0
54.279618423 785.0
54.296329692 694.0
54.313040961 704.0
54.329752230 693.0
54.346463499 713.0
54.363174768 693.0
54.379886037 651.0
54.396597306 640.0
54.413308575 662.0
54.430019844 607.0
54.446731113 620.0
54.463442382 604.0
54.480153651 628.0
54.496864920 583.0
54.513576189 555.0
54.530287458 528.0
54.546998727 521.0
54.563709996 467.0
54.580421265 460.0
54.597132534 515.0
54.613843803 478.0
54.630555072 464.0
54.647266341 428.0
54.663977609 436.0
54.680688878 406.0
54.697400147 449.0
54.714111416 401.0
54.730822685 353.0
54.747533954 378.0
54.764245223 402.0
54.780956492 363.0
54.797667761 333.0
54.814379030 386.0
54.831090299 376.0
54.847801568 356.0
54.864512837 371.0
54.881224106 365.0
54.897935375 365.0
54.914646644 372.0
54.931357913 343.0
54.948069182 368.0
54.964780451 345.0
54.981491720 354.0
54.998202989 359.0
55.014914258 375.0
55.031625527 337.0
55.048336796 356.0
55.065048065 348.0
55.081759334 360.0
55.098470603 375.0
55.115181872 380.0
55.131893141 384.0
55.148604410 426.0
55.165315679 403.0
55.182026948 416.0
55.198738217 384.0
55.215449486 357.0
55.232160755 357.0
55.248872024 354.0
55.265583293 350.0
55.282294562 352.0
55.299005831 356.0
55.315717100 342.0
55.332428369 320.0
55.349139638 323.0
55.365850907 302.0
55.382562176 332.0
55.399273445 318.0
55.415984714 320.0
55.432695982 314.0
55.449407251 281.0
55.466118520 298.0
55.482829789 296.0
55.499541058 305.0
55.516252327 280.0
55.532963596 283.0
55.549674865 292.0
55.566386134 276.0
55.583097403 310.0
55.599808672 316.0
55.616519941 287.0
55.633231210 311.0
55.649942479 263.0
55.666653748 291.0
55.683365017 263.0
55.700076286 270.0
55.716787555 313.0
55.733498824 326.0
55.750210093 307.0
55.766921362 318.0
55.783632631 285.0
55.800343900 325.0
55.817055169 292.0
55.833766438 319.0
55.850477707 317.0
55.867188976 320.0
55.883900245 297.0
55.900611514 296.0
55.917322783 272.0
55.934034052 311.0
55.950745321 356.0
55.967456590 300.0
55.984167859 313.0
56.000879128 340.0
56.017590397 335.0
56.034301666 336.0
56.051012935 337.0
56.067724204 319.0
56.084435473 339.0
56.101146742 388.0
56.117858011 340.0
56.134569280 315.0
56.151280549 332.0
56.167991818 331.0
56.184703087 323.0
56.201414356 320.0
56.218125624 347.0
56.234836893 362.0
56.251548162 310.0
56.268259431 333.0
56.284970700 294.0
56.301681969 354.0
56.318393238 341.0
56.335104507 372.0
56.351815776 331.0
56.368527045 372.0
56.385238314 348.0
56.401949583 379.0
56.418660852 383.0
56.435372121 346.0
56.452083390 355.0
56.468794659 397.0
56.485505928 318.0
56.502217197 350.0
56.518928466 394.0
56.535639735 318.0
56.552351004 308.0
56.569062273 332.0
56.585773542 310.0
56.602484811 341.0
56.619196080 278.0
56.635907349 325.0
56.652618618 344.0
56.669329887 308.0
56.686041156 320.0
56.702752425 308.0
56.719463694 307.0
56.736174963 307.0
56.752886232 325.0
56.769597501 279.0
56.786308770 304.0
56.803020039 311.0
56.819731308 346.0
56.836442577 310.0
56.853153846 315.0
56.869865115 325.0
56.886576384 320.0
56.903287653 348.0
56.919998922 346.0
56.936710191 343.0
56.953421460 319.0
56.970132729 321.0
56.986843997 365.0
57.003555266 380.0
57.020266535 346.0
57.036977804 372.0
57.053689073 379.0
57.070400342 364.0
57.087111611 369.0
57.103822880 412.0
57.120534149 406.0
57.137245418 391.0
57.153956687 378.0
57.170667956 322.0
57.187379225 329.0
57.204090494 340.0
57.220801763 356.0
57.237513032 373.0
57.254224301 353.0
57.270935570 387.0
57.287646839 329.0
57.304358108 333.0
57.321069377 331.0
57.337780646 361.0
57.354491915 368.0
57.371203184 309.0
57.387914453 289.0
57.404625722 327.0
57.421336991 348.0
57.438048260 348.0
57.454759529 353.0
57.471470798 343.0
57.488182067 351.0
57.504893336 346.0
57.521604605 317.0
57.538315874 341.0
57.555027143 322.0
57.571738412 345.0
57.588449681 354.0
57.605160950 335.0
57.621872219 351.0
57.638583488 340.0
57.655294757 329.0
57.672006026 309.0
57.688717295 340.0
57.705428564 353.0
57.722139833 331.0
57.738851102 328.0
57.755562371 337.0
57.772273639 342.0
57.788984908 331.0
57.805696177 333.0
57.822407446 345.0
57.839118715 310.0
57.855829984 319.0
57.872541253 358.0
57.889252522 326.0
57.905963791 367.0
57.922675060 351.0
57.939386329 305.0
57.956097598 322.0
57.972808867 354.0
57.989520136 314.0
58.006231405 340.0
58.022942674 325.0
58.039653943 327.0
58.056365212 333.0
58.073076481 297.0
58.089787750 337.0
58.106499019 340.0
58.123210288 298.0
58.139921557 348.0
58.156632826 304.0
58.173344095 322.0
58.190055364 328.0
58.206766633 356.0
58.223477902 302.0
58.240189171 309.0
58.256900440 346.0
58.273611709 335.0
58.290322978 313.0
58.307034247 341.0
58.323745516 312.0
58.340456785 354.0
58.357168054 305.0
58.373879323 332.0
58.390590592 335.0
58.407301861 322.0
58.424013130 366.0
58.440724399 361.0
58.457435668 360.0
58.474146937 343.0
58.490858206 370.0
58.507569475 381.0
58.524280744 376.0
58.540992012 369.0
58.557703281 370.0
58.574414550 351.0
58.591125819 390.0
58.607837088 344.0
58.624548357 337.0
58.641259626 328.0
58.657970895 348.0
58.674682164 346.0
58.691393433 351.0
58.708104702 334.0
58.724815971 389.0
58.741527240 337.0
58.758238509 326.0
58.774949778 315.0
58.791661047 347.0
58.808372316 352.0
58.825083585 321.0
58.841794854 321.0
58.858506123 328.0
58.875217392 319.0
58.891928661 344.0
58.908639930 305.0
58.925351199 352.0
58.942062468 333.0
58.958773737 344.0
58.975485006 351.0
58.992196275 345.0
59.008907544 358.0
59.025618813 333.0
59.042330082 316.0
59.059041351 316.0
59.075752620 375.0
59.092463889 353.0
59.109175158 346.0
59.125886427 335.0
59.142597696 338.0
59.159308965 341.0
59.176020234 356.0
59.192731503 323.0
59.209442772 337.0
59.226154041 342.0
59.242865310 348.0
59.259576579 354.0
59.276287848 322.0
59.292999117 347.0
59.309710386 355.0
59.326421654 380.0
59.343132923 358.0
59.359844192 398.0
59.376555461 370.0
59.393266730 418.0
59.409977999 408.0
59.426689268 365.0
59.443400537 357.0
59.460111806 372.0
59.476823075 377.0
59.493534344 402.0
59.510245613 372.0
59.526956882 407.0
59.543668151 379.0
59.560379420 361.0
59.577090689 378.0
59.593801958 363.0
59.610513227 378.0
59.627224496 389.0
59.643935765 358.0
59.660647034 371.0
59.677358303 390.0
59.694069572 363.0
59.710780841 352.0
59.727492110 391.0
59.744203379 364.0
59.760914648 375.0
59.777625917 357.0
59.794337186 369.0
59.811048455 363.0
59.827759724 389.0
59.844470993 368.0
59.861182262 371.0
59.877893531 385.0
59.894604800 385.0
59.911316069 401.0
59.928027338 379.0
59.944738607 343.0
59.961449876 392.0
59.978161145 361.0
59.994872414 341.0
60.011583683 348.0
60.028294952 395.0
60.045006221 361.0
60.061717490 364.0
60.078428759 385.0
60.095140027 367.0
60.111851296 354.0
60.128562565 362.0
60.145273834 346.0
60.161985103 326.0
60.178696372 341.0
60.195407641 360.0
60.212118910 340.0
60.228830179 370.0
60.245541448 402.0
60.262252717 347.0
60.278963986 346.0
60.295675255 332.0
60.312386524 353.0
60.329097793 340.0
60.345809062 358.0
60.362520331 323.0
60.379231600 392.0
60.395942869 370.0
60.412654138 350.0
60.429365407 385.0
60.446076676 347.0
60.462787945 402.0
60.479499214 438.0
60.496210483 379.0
60.512921752 396.0
60.529633021 389.0
60.546344290 405.0
60.563055559 386.0
60.579766828 383.0
60.596478097 392.0
60.613189366 421.0
60.629900635 380.0
60.646611904 388.0
60.663323173 363.0
60.680034442 395.0
60.696745711 382.0
60.713456980 367.0
60.730168249 390.0
60.746879518 366.0
60.763590787 392.0
60.780302056 355.0
60.797013325 394.0
60.813724594 375.0
60.830435863 378.0
60.847147132 375.0
60.863858401 358.0
60.880569669 375.0
60.897280938 366.0
60.913992207 358.0
60.930703476 340.0
60.947414745 339.0
60.964126014 346.0
60.980837283 384.0
60.997548552 369.0
61.014259821 344.0
61.030971090 363.0
61.047682359 355.0
61.064393628 341.0
61.081104897 383.0
61.097816166 373.0
61.114527435 363.0
61.131238704 375.0
61.147949973 354.0
61.164661242 362.0
61.181372511 340.0
61.198083780 354.0
61.214795049 404.0
61.231506318 369.0
61.248217587 350.0
61.264928856 330.0
61.281640125 311.0
61.298351394 367.0
61.315062663 339.0
61.331773932 304.0
61.348485201 302.0
61.365196470 321.0
61.381907739 332.0
61.398619008 301.0
61.415330277 334.0
61.432041546 318.0
61.448752815 285.0
61.465464084 308.0
61.482175353 304.0
61.498886622 310.0
61.515597891 313.0
61.532309160 309.0
61.549020429 284.0
61.565731698 316.0
61.582442967 287.0
61.599154236 279.0
61.615865505 295.0
61.632576774 294.0
61.649288042 313.0
61.665999311 288.0
61.682710580 300.0
61.699421849 337.0
61.716133118 280.0
61.732844387 338.0
61.749555656 282.0
61.766266925 281.0
61.782978194 296.0
61.799689463 297.0
61.816400732 293.0
61.833112001 318.0
61.849823270 331.0
61.866534539 344.0
61.883245808 344.0
61.899957077 314.0
61.916668346 336.0
61.933379615 318.0
61.950090884 347.0
61.966802153 360.0
61.983513422 332.0
62.000224691 354.0
62.016935960 359.0
62.033647229 347.0
62.050358498 300.0
62.067069767 330.0
62.083781036 321.0
62.100492305 292.0
62.117203574 331.0
62.133914843 320.0
62.150626112 311.0
62.167337381 320.0
62.184048650 321.0
62.200759919 340.0
62.217471188 321.0
62.234182457 297.0
62.250893726 323.0
62.267604995 318.0
62.284316264 315.0
62.301027533 319.0
62.317738802 316.0
62.334450071 333.0
62.351161340 301.0
62.367872609 313.0
62.384583878 314.0
62.401295147 293.0
62.418006416 331.0
62.434717684 315.0
62.451428953 311.0
62.468140222 370.0
62.484851491 333.0
62.501562760 346.0
62.518274029 326.0
62.534985298 295.0
62.551696567 330.0
62.568407836 301.0
62.585119105 298.0
62.601830374 287.0
62.618541643 293.0
62.635252912 269.0
62.651964181 314.0
62.668675450 306.0
62.685386719 303.0
62.702097988 285.0
62.718809257 333.0
62.735520526 275.0
62.752231795 275.0
62.768943064 320.0
62.785654333 328.0
62.802365602 326.0
62.819076871 334.0
62.835788140 326.0
62.852499409 369.0
62.869210678 375.0
62.885921947 383.0
62.902633216 402.0
62.919344485 434.0
62.936055754 418.0
62.952767023 459.0
62.969478292 436.0
62.986189561 400.0
63.002900830 367.0
63.019612099 388.0
63.036323368 412.0
63.053034637 369.0
63.069745906 377.0
63.086457175 413.0
63.103168444 402.0
63.119879713 390.0
63.136590982 393.0
63.153302251 423.0
63.170013520 356.0
63.186724789 369.0
63.203436057 335.0
63.220147326 316.0
63.236858595 326.0
63.253569864 348.0
63.270281133 347.0
63.286992402 307.0
63.303703671 343.0
63.320414940 288.0
63.337126209 291.0
63.353837478 298.0
63.370548747 323.0
63.387260016 323.0
63.403971285 317.0
63.420682554 325.0
63.437393823 319.0
63.454105092 316.0
63.470816361 326.0
63.487527630 319.0
63.504238899 275.0
63.520950168 284.0
63.537661437 300.0
63.554372706 272.0
63.571083975 287.0
63.587795244 283.0
63.604506513 323.0
63.621217782 270.0
63.637929051 277.0
63.654640320 303.0
63.671351589 272.0
63.688062858 283.0
63.704774127 252.0
63.721485396 286.0
63.738196665 267.0
63.754907934 256.0
63.771619203 244.0
63.788330472 265.0
63.805041741 259.0
63.821753010 282.0
63.838464279 289.0
63.855175548 265.0
63.871886817 282.0
63.888598086 258.0
63.905309355 268.0
63.922020624 244.0
63.938731893 258.0
63.955443162 272.0
63.972154431 273.0
63.988865699 284.0
64.005576968 253.0
64.022288237 243.0
64.038999506 290.0
64.055710775 260.0
64.072422044 258.0
64.089133313 248.0
64.105844582 248.0
64.122555851 223.0
64.139267120 272.0
64.155978389 259.0
64.172689658 263.0
64.189400927 267.0
64.206112196 283.0
64.222823465 265.0
64.239534734 270.0
64.256246003 268.0
64.272957272 295.0
64.289668541 240.0
64.306379810 244.0
64.323091079 287.0
64.339802348 246.0
64.356513617 247.0
64.373224886 246.0
64.389936155 269.0
64.406647424 280.0
64.423358693 258.0
64.440069962 270.0
64.456781231 264.0
64.473492500 282.0
64.490203769 310.0
64.506915038 308.0
64.523626307 295.0
64.540337576 292.0
64.557048845 320.0
64.573760114 309.0
64.590471383 291.0
64.607182652 309.0
64.623893921 292.0
64.640605190 309.0
64.657316459 289.0
64.674027728 267.0
64.690738997 278.0
64.707450266 306.0
64.724161535 292.0
64.740872804 288.0
64.757584072 307.0
64.774295341 294.0
64.791006610 272.0
64.807717879 275.0
64.824429148 281.0
64.841140417 278.0
64.857851686 270.0
64.874562955 247.0
64.891274224 268.0
64.907985493 281.0
64.924696762 256.0
64.941408031 220.0
64.958119300 248.0
64.974830569 281.0
64.991541838 247.0
65.008253107 266.0
65.024964376 238.0
65.041675645 254.0
65.058386914 249.0
65.075098183 281.0
65.091809452 251.0
65.108520721 286.0
65.125231990 238.0
65.141943259 261.0
65.158654528 256.0
65.175365797 271.0
65.192077066 241.0
65.208788335 267.0
65.225499604 255.0
65.242210873 247.0
65.258922142 255.0
65.275633411 270.0
65.292344680 235.0
65.309055949 243.0
65.325767218 255.0
65.342478487 277.0
65.359189756 259.0
65.375901025 226.0
65.392612294 256.0
65.409323563 257.0
65.426034832 238.0
65.442746101 264.0
65.459457370 252.0
65.476168639 269.0
65.492879908 261.0
65.509591177 275.0
65.526302446 248.0
65.543013714 276.0
65.559724983 265.0
65.576436252 249.0
65.593147521 254.0
65.609858790 276.0
65.626570059 277.0
65.643281328 275.0
65.659992597 256.0
65.676703866 252.0
65.693415135 266.0
65.710126404 237.0
65.726837673 280.0
65.743548942 256.0
65.760260211 258.0
65.776971480 289.0
65.793682749 236.0
65.810394018 296.0
65.827105287 264.0
65.843816556 272.0
65.860527825 261.0
65.877239094 282.0
65.893950363 265.0
65.910661632 264.0
65.927372901 267.0
65.944084170 268.0
65.960795439 248.0
65.977506708 262.0
65.994217977 265.0
66.010929246 271.0
66.027640515 282.0
66.044351784 263.0
66.061063053 242.0
66.077774322 257.0
66.094485591 265.0
66.111196860 261.0
66.127908129 245.0
66.144619398 267.0
66.161330667 255.0
66.178041936 230.0
66.194753205 244.0
66.211464474 280.0
66.228175743 254.0
66.244887012 251.0
66.261598281 269.0
66.278309550 259.0
66.295020819 258.0
66.311732087 303.0
66.328443356 275.0
66.345154625 303.0
66.361865894 252.0
66.378577163 266.0
66.395288432 271.0
66.411999701 264.0
66.428710970 267.0
66.445422239 268.0
66.462133508 226.0
66.478844777 277.0
66.495556046 247.0
66.512267315 271.0
66.528978584 272.0
66.545689853 259.0
66.562401122 262.0
66.579112391 272.0
66.595823660 266.0
66.612534929 259.0
66.629246198 260.0
66.645957467 267.0
66.662668736 267.0
66.679380005 280.0
66.696091274 284.0
66.712802543 285.0
66.729513812 257.0
66.746225081 263.0
66.762936350 265.0
66.779647619 271.0
66.796358888 266.0
66.813070157 298.0
66.829781426 262.0
66.846492695 241.0
66.863203964 218.0
66.879915233 272.0
66.896626502 247.0
66.913337771 261.0
66.930049040 254.0
66.946760309 243.0
66.963471578 254.0
66.980182847 267.0
66.996894116 240.0
67.013605385 253.0
67.030316654 241.0
67.047027923 251.0
67.063739192 255.0
67.080450460 254.0
67.097161729 197.0
67.113872998 281.0
67.130584267 265.0
67.147295536 239.0
67.164006805 269.0
67.180718074 228.0
67.197429343 243.0
67.214140612 207.0
67.230851881 252.0
67.247563150 281.0
67.264274419 241.0
67.280985688 267.0
67.297696957 259.0
67.314408226 237.0
67.331119495 257.0
67.347830764 241.0
67.364542033 262.0
67.381253302 237.0
67.397964571 246.0
67.414675840 282.0
67.431387109 296.0
67.448098378 285.0
67.464809647 222.0
67.481520916 258.0
67.498232185 266.0
67.514943454 235.0
67.531654723 251.0
67.548365992 213.0
67.565077261 229.0
67.581788530 262.0
67.598499799 216.0
67.615211068 212.0
67.631922337 245.0
67.648633606 226.0
67.665344875 223.0
67.682056144 223.0
67.698767413 220.0
67.715478682 216.0
67.732189951 294.0
67.748901220 223.0
67.765612489 223.0
67.782323758 242.0
67.799035027 219.0
67.815746296 256.0
67.832457565 267.0
67.849168834 198.0
67.865880102 237.0
67.882591371 244.0
67.899302640 231.0
67.916013909 218.0
67.932725178 235.0
67.949436447 221.0
67.966147716 236.0
67.982858985 223.0
67.999570254 245.0
68.016281523 229.0
68.032992792 234.0
68.049704061 262.0
68.066415330 244.0
68.083126599 218.0
68.099837868 241.0
68.116549137 251.0
68.133260406 243.0
68.149971675 245.0
68.166682944 233.0
68.183394213 224.0
68.200105482 198.0
68.216816751 229.0
68.233528020 260.0
68.250239289 231.0
68.266950558 226.0
68.283661827 231.0
68.300373096 268.0
68.317084365 275.0
68.333795634 228.0
68.350506903 229.0
68.367218172 246.0
68.383929441 246.0
68.400640710 216.0
68.417351979 265.0
68.434063248 249.0
68.450774517 227.0
68.467485786 233.0
68.484197055 218.0
68.500908324 234.0
68.517619593 231.0
68.534330862 254.0
68.551042131 224.0
68.567753400 240.0
68.584464669 247.0
68.601175938 223.0
68.617887207 242.0
68.634598475 213.0
68.651309744 235.0
68.668021013 204.0
68.684732282 257.0
68.701443551 233.0
68.718154820 251.0
68.734866089 275.0
68.751577358 251.0
68.768288627 244.0
68.784999896 248.0
68.801711165 213.0
68.818422434 242.0
68.835133703 237.0
68.851844972 231.0
68.868556241 261.0
68.885267510 242.0
68.901978779 279.0
68.918690048 273.0
68.935401317 262.0
68.952112586 271.0
68.968823855 294.0
68.985535124 292.0
69.002246393 291.0
69.018957662 264.0
69.035668931 275.0
69.052380200 238.0
69.069091469 229.0
69.085802738 263.0
69.102514007 256.0
69.119225276 267.0
69.135936545 262.0
69.152647814 266.0
69.169359083 263.0
69.186070352 266.0
69.202781621 258.0
69.219492890 254.0
69.236204159 249.0
69.252915428 263.0
69.269626697 254.0
69.286337966 261.0
69.303049235 257.0
69.319760504 285.0
69.336471773 246.0
69.353183042 253.0
69.369894311 264.0
69.386605580 241.0
69.403316849 246.0
69.420028117 247.0
69.436739386 256.0
69.453450655 260.0
69.470161924 243.0
69.486873193 243.0
69.503584462 253.0
69.520295731 268.0
69.537007000 248.0
69.553718269 238.0
69.570429538 269.0
69.587140807 261.0
69.603852076 233.0
69.620563345 239.0
69.637274614 245.0
69.653985883 246.0
69.670697152 207.0
69.687408421 219.0
69.704119690 239.0
69.720830959 221.0
69.737542228 234.0
69.754253497 238.0
69.770964766 262.0
69.787676035 222.0
69.804387304 222.0
69.821098573 246.0
69.837809842 227.0
69.854521111 245.0
69.871232380 261.0
69.887943649 242.0
69.904654918 267.0
69.921366187 267.0
69.938077456 247.0
69.954788725 216.0
69.971499994 252.0
69.988211263 256.0
70.004922532 243.0
70.021633801 246.0
70.038345070 253.0
70.055056339 260.0
70.071767608 276.0
70.088478877 296.0
70.105190146 286.0
70.121901415 260.0
70.138612684 255.0
70.155323953 239.0
70.172035222 279.0
70.188746490 246.0
70.205457759 223.0
70.222169028 242.0
70.238880297 280.0
70.255591566 248.0
70.272302835 269.0
70.289014104 244.0
70.305725373 244.0
70.322436642 226.0
70.339147911 264.0
70.355859180 256.0
70.372570449 265.0
70.389281718 258.0
70.405992987 284.0
70.422704256 255.0
70.439415525 245.0
70.456126794 229.0
70.472838063 275.0
70.489549332 283.0
70.506260601 266.0
70.522971870 271.0
70.539683139 294.0
70.556394408 263.0
70.573105677 278.0
70.589816946 283.0
70.606528215 278.0
70.623239484 258.0
70.639950753 237.0
70.656662022 287.0
70.673373291 258.0
70.690084560 245.0
70.706795829 228.0
70.723507098 236.0
70.740218367 259.0
70.756929636 286.0
70.773640905 262.0
70.790352174 251.0
70.807063443 260.0
70.823774712 252.0
70.840485981 241.0
70.857197250 239.0
70.873908519 232.0
70.890619788 251.0
70.907331057 244.0
70.924042326 245.0
70.940753595 231.0
70.957464864 245.0
70.974176132 270.0
70.990887401 253.0
71.007598670 249.0
71.024309939 229.0
71.041021208 229.0
71.057732477 269.0
71.074443746 275.0
71.091155015 277.0
71.107866284 285.0
71.124577553 261.0
71.141288822 272.0
71.158000091 246.0
71.174711360 259.0
71.191422629 270.0
71.208133898 258.0
71.224845167 294.0
71.241556436 263.0
71.258267705 247.0
71.274978974 254.0
71.291690243 262.0
71.308401512 238.0
71.325112781 253.0
71.341824050 261.0
71.358535319 232.0
71.375246588 253.0
71.391957857 270.0
71.408669126 223.0
71.425380395 235.0
71.442091664 273.0
71.458802933 239.0
71.475514202 223.0
71.492225471 244.0
71.508936740 233.0
71.525648009 240.0
71.542359278 243.0
71.559070547 253.0
71.575781816 252.0
71.592493085 262.0
71.609204354 263.0
71.625915623 271.0
71.642626892 238.0
71.659338161 260.0
71.676049430 268.0
71.692760699 245.0
71.709471968 244.0
71.726183237 243.0
71.742894505 256.0
71.759605774 247.0
71.776317043 235.0
71.793028312 233.0
71.809739581 252.0
71.826450850 249.0
71.843162119 228.0
71.859873388 249.0
71.876584657 234.0
71.893295926 262.0
71.910007195 252.0
71.926718464 245.0
71.943429733 229.0
71.960141002 243.0
71.976852271 226.0
71.993563540 234.0
72.010274809 222.0
72.026986078 221.0
72.043697347 219.0
72.060408616 247.0
72.077119885 245.0
72.093831154 213.0
72.110542423 222.0
72.127253692 235.0
72.143964961 221.0
72.160676230 207.0
72.177387499 219.0
72.194098768 237.0
72.210810037 247.0
72.227521306 215.0
72.244232575 207.0
72.260943844 223.0
72.277655113 220.0
72.294366382 233.0
72.311077651 233.0
72.327788920 215.0
72.344500189 248.0
72.361211458 247.0
72.377922727 227.0
72.394633996 238.0
72.411345265 252.0
72.428056534 222.0
72.444767803 207.0
72.461479072 223.0
72.478190341 198.0
72.494901610 238.0
72.511612879 243.0
72.528324147 228.0
72.545035416 236.0
72.561746685 246.0
72.578457954 232.0
72.595169223 244.0
72.611880492 235.0
72.628591761 224.0
72.645303030 230.0
72.662014299 237.0
72.678725568 247.0
72.695436837 229.0
72.712148106 231.0
72.728859375 200.0
72.745570644 232.0
72.762281913 240.0
72.778993182 214.0
72.795704451 227.0
72.812415720 255.0
72.829126989 244.0
72.845838258 220.0
72.862549527 218.0
72.879260796 258.0
72.895972065 235.0
72.912683334 220.0
72.929394603 248.0
72.946105872 236.0
72.962817141 230.0
72.979528410 247.0
72.996239679 221.0
73.012950948 249.0
73.029662217 233.0
73.046373486 213.0
73.063084755 220.0
73.079796024 245.0
73.096507293 224.0
73.113218562 231.0
73.129929831 221.0
73.146641100 241.0
73.163352369 245.0
73.180063638 221.0
73.196774907 251.0
73.213486176 212.0
73.230197445 237.0
73.246908714 253.0
73.263619983 265.0
73.280331252 275.0
73.297042520 251.0
73.313753789 241.0
73.330465058 249.0
73.347176327 233.0
73.363887596 224.0
73.380598865 241.0
73.397310134 249.0
73.414021403 240.0
73.430732672 219.0
73.447443941 236.0
73.464155210 230.0
73.480866479 201.0
73.497577748 233.0
73.514289017 221.0
73.531000286 241.0
73.547711555 233.0
73.564422824 213.0
73.581134093 218.0
73.597845362 214.0
73.614556631 245.0
73.631267900 215.0
73.647979169 227.0
73.664690438 262.0
73.681401707 216.0
73.698112976 265.0
73.714824245 263.0
73.731535514 270.0
73.748246783 279.0
73.764958052 258.0
73.781669321 242.0
73.798380590 260.0
73.815091859 253.0
73.831803128 256.0
73.848514397 254.0
73.865225666 268.0
73.881936935 267.0
73.898648204 249.0
73.915359473 257.0
73.932070742 275.0
73.948782011 265.0
73.965493280 247.0
73.982204549 259.0
73.998915818 254.0
74.015627087 237.0
74.032338356 246.0
74.049049625 229.0
74.065760894 235.0
74.082472162 234.0
74.099183431 239.0
74.115894700 235.0
74.132605969 233.0
74.149317238 195.0
74.166028507 228.0
74.182739776 270.0
74.199451045 256.0
74.216162314 217.0
74.232873583 239.0
74.249584852 253.0
74.266296121 230.0
74.283007390 258.0
74.299718659 285.0
74.316429928 267.0
74.333141197 247.0
74.349852466 229.0
74.366563735 266.0
74.383275004 246.0
74.399986273 292.0
74.416697542 280.0
74.433408811 276.0
74.450120080 286.0
74.466831349 282.0
74.483542618 297.0
74.500253887 262.0
74.516965156 283.0
74.533676425 295.0
74.550387694 251.0
74.567098963 263.0
74.583810232 265.0
74.600521501 270.0
74.617232770 252.0
74.633944039 228.0
74.650655308 231.0
74.667366577 251.0
74.684077846 260.0
74.700789115 227.0
74.717500384 284.0
74.734211653 280.0
74.750922922 252.0
74.767634191 220.0
74.784345460 228.0
74.801056729 248.0
74.817767998 260.0
74.834479267 242.0
74.851190535 228.0
74.867901804 232.0
74.884613073 235.0
74.901324342 252.0
74.918035611 230.0
74.934746880 229.0
74.951458149 233.0
74.968169418 213.0
74.984880687 215.0
75.001591956 202.0
75.018303225 227.0
75.035014494 189.0
75.051725763 226.0
75.068437032 231.0
75.085148301 229.0
75.101859570 218.0
75.118570839 227.0
75.135282108 236.0
75.151993377 232.0
75.168704646 219.0
75.185415915 243.0
75.202127184 222.0
75.218838453 206.0
75.235549722 212.0
75.252260991 237.0
75.268972260 216.0
75.285683529 232.0
75.302394798 206.0
75.319106067 233.0
75.335817336 237.0
75.352528605 198.0
75.369239874 235.0
75.385951143 227.0
75.402662412 221.0
75.419373681 217.0
75.436084950 236.0
75.452796219 241.0
75.469507488 235.0
75.486218757 212.0
75.502930026 232.0
75.519641295 237.0
75.536352564 218.0
75.553063833 235.0
75.569775102 247.0
75.586486371 240.0
75.603197640 211.0
75.619908909 215.0
75.636620177 210.0
75.653331446 241.0
75.670042715 222.0
75.686753984 187.0
75.703465253 237.0
75.720176522 244.0
75.736887791 219.0
75.753599060 219.0
75.770310329 222.0
75.787021598 258.0
75.803732867 197.0
75.820444136 226.0
75.837155405 293.0
75.853866674 244.0
75.870577943 266.0
75.887289212 236.0
75.904000481 283.0
75.920711750 277.0
75.937423019 307.0
75.954134288 290.0
75.970845557 294.0
75.987556826 255.0
76.004268095 253.0
76.020979364 271.0
76.037690633 258.0
76.054401902 241.0
76.071113171 229.0
76.087824440 249.0
76.104535709 261.0
76.121246978 252.0
76.137958247 262.0
76.154669516 263.0
76.171380785 266.0
76.188092054 264.0
76.204803323 249.0
76.221514592 230.0
76.238225861 233.0
76.254937130 240.0
76.271648399 247.0
76.288359668 243.0
76.305070937 227.0
76.321782206 242.0
76.338493475 254.0
76.355204744 233.0
76.371916013 227.0
76.388627282 240.0
76.405338550 275.0
76.422049819 240.0
76.438761088 231.0
76.455472357 228.0
76.472183626 216.0
76.488894895 239.0
76.505606164 237.0
76.522317433 222.0
76.539028702 269.0
76.555739971 252.0
76.572451240 257.0
76.589162509 268.0
76.605873778 226.0
76.622585047 253.0
76.639296316 247.0
76.656007585 235.0
76.672718854 254.0
76.689430123 248.0
76.706141392 252.0
76.722852661 278.0
76.739563930 259.0
76.756275199 259.0
76.772986468 258.0
76.789697737 263.0
76.806409006 283.0
76.823120275 253.0
76.839831544 288.0
76.856542813 282.0
76.873254082 312.0
76.889965351 306.0
76.906676620 310.0
76.923387889 314.0
76.940099158 311.0
76.956810427 331.0
76.973521696 325.0
76.990232965 341.0
77.006944234 375.0
77.023655503 410.0
77.040366772 433.0
77.057078041 440.0
77.073789310 483.0
77.090500579 492.0
77.107211848 515.0
77.123923117 591.0
77.140634386 635.0
77.157345655 680.0
77.174056924 733.0
77.190768192 801.0
77.207479461 870.0
77.224190730 929.0
77.240901999 1097.0
77.257613268 1194.0
77.274324537 1362.0
77.291035806 1383.0
77.307747075 1602.0
77.324458344 1711.0
77.341169613 1786.0
77.357880882 2001.0
77.374592151 2178.0
77.391303420 2289.0
77.408014689 2440.0
77.424725958 2569.0
77.441437227 2448.0
77.458148496 2430.0
77.474859765 2219.0
77.491571034 1979.0
77.508282303 1806.0
77.524993572 1671.0
77.541704841 1607.0
77.558416110 1548.0
77.575127379 1496.0
77.591838648 1528.0
77.608549917 1506.0
77.625261186 1418.0
77.641972455 1542.0
77.658683724 1468.0
77.675394993 1433.0
77.692106262 1358.0
77.708817531 1175.0
77.725528800 1076.0
77.742240069 930.0
77.758951338 831.0
77.775662607 770.0
77.792373876 682.0
77.809085145 622.0
77.825796414 555.0
77.842507683 558.0
77.859218952 505.0
77.875930221 438.0
77.892641490 484.0
77.909352759 470.0
77.926064028 433.0
77.942775297 402.0
77.959486565 411.0
77.976197834 386.0
77.992909103 367.0
78.009620372 360.0
78.026331641 363.0
78.043042910 387.0
78.059754179 356.0
78.076465448 310.0
78.093176717 309.0
78.109887986 313.0
78.126599255 330.0
78.143310524 317.0
78.160021793 306.0
78.176733062 304.0
78.193444331 291.0
78.210155600 298.0
78.226866869 294.0
78.243578138 297.0
78.260289407 296.0
78.277000676 313.0
78.293711945 289.0
78.310423214 320.0
78.327134483 297.0
78.343845752 325.0
78.360557021 322.0
78.377268290 281.0
78.393979559 290.0
78.410690828 291.0
78.427402097 301.0
78.444113366 288.0
78.460824635 301.0
78.477535904 295.0
78.494247173 290.0
78.510958442 300.0
78.527669711 304.0
78.544380980 287.0
78.561092249 290.0
78.577803518 272.0
78.594514787 269.0
78.611226056 283.0
78.627937325 291.0
78.644648594 295.0
78.661359863 277.0
78.678071132 279.0
78.694782401 248.0
78.711493670 291.0
78.728204939 301.0
78.744916207 286.0
78.761627476 244.0
78.778338745 279.0
78.795050014 244.0
78.811761283 313.0
78.828472552 269.0
78.845183821 252.0
78.861895090 267.0
78.878606359 286.0
78.895317628 261.0
78.912028897 248.0
78.928740166 237.0
78.945451435 294.0
78.962162704 236.0
78.978873973 279.0
78.995585242 258.0
79.012296511 301.0
79.029007780 277.0
79.045719049 248.0
79.062430318 287.0
79.079141587 271.0
79.095852856 306.0
79.112564125 278.0
79.129275394 298.0
79.145986663 303.0
79.162697932 269.0
79.179409201 264.0
79.196120470 264.0
79.212831739 287.0
79.229543008 291.0
79.246254277 287.0
79.262965546 246.0
79.279676815 256.0
79.296388084 261.0
79.313099353 265.0
79.329810622 277.0
79.346521891 261.0
79.363233160 254.0
79.379944429 285.0
79.396655698 252.0
79.413366967 283.0
79.430078236 282.0
79.446789505 272.0
79.463500774 286.0
79.480212043 258.0
79.496923312 266.0
79.513634580 240.0
79.530345849 258.0
79.547057118 272.0
79.563768387 226.0
79.580479656 244.0
79.597190925 255.0
79.613902194 253.0
79.630613463 254.0
79.647324732 239.0
79.664036001 258.0
79.680747270 242.0
79.697458539 265.0
79.714169808 255.0
79.730881077 241.0
79.747592346 234.0
79.764303615 237.0
79.781014884 230.0
79.797726153 263.0
79.814437422 226.0
79.831148691 267.0
79.847859960 255.0
79.864571229 220.0
79.881282498 246.0
79.897993767 242.0
79.914705036 249.0
79.931416305 259.0
79.948127574 251.0
79.964838843 239.0
79.981550112 258.0
79.998261381 256.0
80.014972650 230.0
80.031683919 292.0
80.048395188 222.0
80.065106457 258.0
80.081817726 228.0
80.098528995 232.0
80.115240264 244.0
80.131951533 263.0
80.148662802 253.0
80.165374071 241.0
80.182085340 264.0
80.198796609 257.0
80.215507878 283.0
80.232219147 247.0
80.248930416 253.0
80.265641685 238.0
80.282352954 277.0
80.299064222 295.0
80.315775491 236.0
80.332486760 270.0
80.349198029 239.0
80.365909298 266.0
80.382620567 255.0
80.399331836 267.0
80.416043105 257.0
80.432754374 249.0
80.449465643 260.0
80.466176912 270.0
80.482888181 272.0
80.499599450 239.0
80.516310719 242.0
80.533021988 269.0
80.549733257 270.0
80.566444526 228.0
80.583155795 240.0
80.599867064 254.0
80.616578333 296.0
80.633289602 280.0
80.650000871 245.0
80.666712140 259.0
80.683423409 283.0
80.700134678 262.0
80.716845947 241.0
80.733557216 282.0
80.750268485 260.0
80.766979754 222.0
80.783691023 240.0
80.800402292 277.0
80.817113561 234.0
80.833824830 281.0
80.850536099 255.0
80.867247368 256.0
80.883958637 239.0
80.900669906 266.0
80.917381175 232.0
80.934092444 280.0
80.950803713 279.0
80.967514982 259.0
80.984226251 283.0
81.000937520 298.0
81.017648789 271.0
81.034360058 276.0
81.051071327 292.0
81.067782595 239.0
81.084493864 266.0
81.101205133 272.0
81.117916402 289.0
81.134627671 271.0
81.151338940 308.0
81.168050209 266.0
81.184761478 276.0
81.201472747 280.0
81.218184016 259.0
81.234895285 257.0
81.251606554 316.0
81.268317823 301.0
81.285029092 292.0
81.301740361 300.0
81.318451630 292.0
81.335162899 309.0
81.351874168 307.0
81.368585437 291.0
81.385296706 288.0
81.402007975 295.0
81.418719244 291.0
81.435430513 255.0
81.452141782 306.0
81.468853051 262.0
81.485564320 257.0
81.502275589 292.0
81.518986858 315.0
81.535698127 280.0
81.552409396 319.0
81.569120665 303.0
81.585831934 296.0
81.602543203 280.0
81.619254472 323.0
81.635965741 321.0
81.652677010 306.0
81.669388279 287.0
81.686099548 300.0
81.702810817 330.0
81.719522086 307.0
81.736233355 331.0
81.752944624 334.0
81.769655893 298.0
81.786367162 297.0
81.803078431 335.0
81.819789700 304.0
81.836500969 356.0
81.853212237 304.0
81.869923506 362.0
81.886634775 339.0
81.903346044 379.0
81.920057313 354.0
81.936768582 347.0
81.953479851 344.0
81.970191120 386.0
81.986902389 365.0
82.003613658 364.0
82.020324927 415.0
82.037036196 395.0
82.053747465 340.0
82.070458734 376.0
82.087170003 371.0
82.103881272 364.0
82.120592541 407.0
82.137303810 351.0
82.154015079 412.0
82.170726348 393.0
82.187437617 397.0
82.204148886 379.0
82.220860155 413.0
82.237571424 382.0
82.254282693 383.0
82.270993962 417.0
82.287705231 433.0
82.304416500 452.0
82.321127769 402.0
82.337839038 387.0
82.354550307 422.0
82.371261576 430.0
82.387972845 453.0
82.404684114 416.0
82.421395383 427.0
82.438106652 481.0
82.454817921 465.0
82.471529190 468.0
82.488240459 477.0
82.504951728 423.0
82.521662997 487.0
82.538374266 479.0
82.555085535 465.0
82.571796804 504.0
82.588508073 556.0
82.605219342 455.0
82.621930610 491.0
82.638641879 504.0
82.655353148 516.0
82.672064417 561.0
82.688775686 504.0
82.705486955 542.0
82.722198224 525.0
82.738909493 568.0
82.755620762 527.0
82.772332031 600.0
82.789043300 564.0
82.805754569 535.0
82.822465838 564.0
82.839177107 559.0
82.855888376 608.0
82.872599645 584.0
82.889310914 610.0
82.906022183 679.0
82.922733452 693.0
82.939444721 638.0
82.956155990 707.0
82.972867259 677.0
82.989578528 683.0
83.006289797 681.0
83.023001066 698.0
83.039712335 666.0
83.056423604 755.0
83.073134873 690.0
83.089846142 675.0
83.106557411 677.0
83.123268680 769.0
83.139979949 746.0
83.156691218 747.0
83.173402487 776.0
83.190113756 779.0
83.206825025 777.0
83.223536294 778.0
83.240247563 818.0
83.256958832 794.0
83.273670101 835.0
83.290381370 819.0
83.307092639 826.0
83.323803908 802.0
83.340515177 827.0
83.357226446 829.0
83.373937715 828.0
83.390648983 807.0
83.407360252 856.0
83.424071521 863.0
83.440782790 866.0
83.457494059 864.0
83.474205328 912.0
83.490916597 914.0
83.507627866 894.0
83.524339135 941.0
83.541050404 870.0
83.557761673 886.0
83.574472942 898.0
83.591184211 878.0
83.607895480 884.0
83.624606749 870.0
83.641318018 889.0
83.658029287 856.0
83.674740556 847.0
83.691451825 882.0
83.708163094 864.0
83.724874363 808.0
83.741585632 855.0
83.758296901 813.0
83.775008170 848.0
83.791719439 788.0
83.808430708 770.0
83.825141977 765.0
83.841853246 723.0
83.858564515 805.0
83.875275784 784.0
83.891987053 736.0
83.908698322 705.0
83.925409591 695.0
83.942120860 733.0
83.958832129 695.0
83.975543398 677.0
83.992254667 697.0
84.008965936 660.0
84.025677205 670.0
84.042388474 670.0
84.059099743 639.0
84.075811012 638.0
84.092522281 619.0
84.109233550 637.0
84.125944819 646.0
84.142656088 627.0
84.159367357 581.0
84.176078625 586.0
84.192789894 588.0
84.209501163 575.0
84.226212432 563.0
84.242923701 528.0
84.259634970 586.0
84.276346239 511.0
84.293057508 559.0
84.309768777 480.0
84.326480046 492.0
84.343191315 489.0
84.359902584 469.0
84.376613853 556.0
84.393325122 520.0
84.410036391 497.0
84.426747660 497.0
84.443458929 476.0
84.460170198 474.0
84.476881467 458.0
84.493592736 442.0
84.510304005 433.0
84.527015274 469.0
84.543726543 462.0
84.560437812 426.0
84.577149081 414.0
84.593860350 439.0
84.610571619 420.0
84.627282888 431.0
84.643994157 384.0
84.660705426 420.0
84.677416695 368.0
84.694127964 382.0
84.710839233 380.0
84.727550502 394.0
84.744261771 415.0
84.760973040 401.0
84.777684309 379.0
84.794395578 360.0
84.811106847 386.0
84.827818116 361.0
84.844529385 359.0
84.861240654 383.0
84.877951923 339.0
84.894663192 366.0
84.911374461 348.0
84.928085730 329.0
84.944796998 346.0
84.961508267 340.0
84.978219536 355.0
84.994930805 330.0
85.011642074 380.0
85.028353343 336.0
85.045064612 331.0
85.061775881 290.0
85.078487150 342.0
85.095198419 328.0
85.111909688 343.0
85.128620957 333.0
85.145332226 316.0
85.162043495 292.0
85.178754764 284.0
85.195466033 300.0
85.212177302 325.0
85.228888571 296.0
85.245599840 288.0
85.262311109 322.0
85.279022378 283.0
85.295733647 317.0
85.312444916 255.0
85.329156185 296.0
85.345867454 306.0
85.362578723 286.0
85.379289992 318.0
85.396001261 288.0
85.412712530 254.0
85.429423799 286.0
85.446135068 288.0
85.462846337 266.0
85.479557606 295.0
85.496268875 323.0
85.512980144 290.0
85.529691413 284.0
85.546402682 275.0
85.563113951 301.0
85.579825220 286.0
85.596536489 290.0
85.613247758 259.0
85.629959027 295.0
85.646670296 287.0
85.663381565 296.0
85.680092834 283.0
85.696804103 284.0
85.713515372 309.0
85.730226640 311.0
85.746937909 296.0
85.763649178 300.0
85.780360447 309.0
85.797071716 283.0
85.813782985 272.0
85.830494254 280.0
85.847205523 309.0
85.863916792 266.0
85.880628061 294.0
85.897339330 252.0
85.914050599 280.0
85.930761868 284.0
85.947473137 290.0
85.964184406 290.0
85.980895675 290.0
85.997606944 305.0
86.014318213 282.0
86.031029482 246.0
86.047740751 272.0
86.064452020 292.0
86.081163289 311.0
86.097874558 297.0
86.114585827 289.0
86.131297096 264.0
86.148008365 262.0
86.164719634 266.0
86.181430903 285.0
86.198142172 278.0
86.214853441 307.0
86.231564710 303.0
86.248275979 314.0
86.264987248 270.0
86.281698517 284.0
86.298409786 296.0
86.315121055 243.0
86.331832324 291.0
86.348543593 268.0
86.365254862 275.0
86.381966131 246.0
86.398677400 284.0
86.415388669 267.0
86.432099938 295.0
86.448811207 281.0
86.465522476 325.0
86.482233745 252.0
86.498945013 275.0
86.515656282 251.0
86.532367551 246.0
86.549078820 321.0
86.565790089 307.0
86.582501358 264.0
86.599212627 283.0
86.615923896 261.0
86.632635165 281.0
86.649346434 239.0
86.666057703 276.0
86.682768972 273.0
86.699480241 244.0
86.716191510 267.0
86.732902779 282.0
86.749614048 246.0
86.766325317 242.0
86.783036586 262.0
86.799747855 242.0
86.816459124 277.0
86.833170393 252.0
86.849881662 257.0
86.866592931 271.0
86.883304200 278.0
86.900015469 219.0
86.916726738 265.0
86.933438007 264.0
86.950149276 271.0
86.966860545 263.0
86.983571814 272.0
87.000283083 236.0
87.016994352 244.0
87.033705621 239.0
87.050416890 242.0
87.067128159 244.0
87.083839428 264.0
87.100550697 236.0
87.117261966 217.0
87.133973235 239.0
87.150684504 213.0
87.167395773 255.0
87.184107042 216.0
87.200818311 229.0
87.217529580 223.0
87.234240849 246.0
87.250952118 253.0
87.267663387 191.0
87.284374655 238.0
87.301085924 239.0
87.317797193 227.0
87.334508462 247.0
87.351219731 252.0
87.367931000 218.0
87.384642269 237.0
87.401353538 218.0
87.418064807 243.0
87.434776076 226.0
87.451487345 240.0
87.468198614 238.0
87.484909883 201.0
87.501621152 228.0
87.518332421 195.0
87.535043690 227.0
87.551754959 209.0
87.568466228 223.0
87.585177497 218.0
87.601888766 227.0
87.618600035 220.0
87.635311304 222.0
87.652022573 177.0
87.668733842 226.0
87.685445111 248.0
87.702156380 189.0
87.718867649 220.0
87.735578918 227.0
87.752290187 221.0
87.769001456 234.0
87.785712725 239.0
87.802423994 219.0
87.819135263 209.0
87.835846532 218.0
87.852557801 217.0
87.869269070 212.0
87.885980339 207.0
87.902691608 238.0
87.919402877 222.0
87.936114146 210.0
87.952825415 207.0
87.969536684 194.0
87.986247953 206.0
88.002959222 203.0
88.019670491 223.0
88.036381760 229.0
88.053093028 201.0
88.069804297 230.0
88.086515566 200.0
88.103226835 204.0
88.119938104 214.0
88.136649373 219.0
88.153360642 224.0
88.170071911 204.0
88.186783180 197.0
88.203494449 206.0
88.220205718 209.0
88.236916987 226.0
88.253628256 219.0
88.270339525 221.0
88.287050794 204.0
88.303762063 215.0
88.320473332 186.0
88.337184601 217.0
88.353895870 201.0
88.370607139 179.0
88.387318408 195.0
88.404029677 187.0
88.420740946 229.0
88.437452215 215.0
88.454163484 204.0
88.470874753 213.0
88.487586022 193.0
88.504297291 185.0
88.521008560 206.0
88.537719829 192.0
88.554431098 175.0
88.571142367 204.0
88.587853636 211.0
88.604564905 210.0
88.621276174 205.0
88.637987443 224.0
88.654698712 222.0
88.671409981 198.0
88.688121250 205.0
88.704832519 184.0
88.721543788 220.0
88.738255057 201.0
88.754966326 193.0
88.771677595 192.0
88.788388864 200.0
88.805100133 188.0
88.821811402 206.0
88.838522670 217.0
88.855233939 201.0
88.871945208 206.0
88.888656477 226.0
88.905367746 200.0
88.922079015 220.0
88.938790284 194.0
88.955501553 222.0
88.972212822 197.0
88.988924091 212.0
89.005635360 172.0
89.022346629 201.0
89.039057898 188.0
89.055769167 181.0
89.072480436 187.0
89.089191705 192.0
89.105902974 197.0
89.122614243 180.0
89.139325512 222.0
89.156036781 185.0
89.172748050 204.0
89.189459319 201.0
89.206170588 211.0
89.222881857 193.0
89.239593126 223.0
89.256304395 204.0
89.273015664 204.0
89.289726933 188.0
89.306438202 205.0
89.323149471 193.0
89.339860740 229.0
89.356572009 210.0
89.373283278 161.0
89.389994547 210.0
89.406705816 195.0
89.423417085 185.0
89.440128354 204.0
89.456839623 182.0
89.473550892 181.0
89.490262161 215.0
89.506973430 194.0
89.523684699 211.0
89.540395968 211.0
89.557107237 173.0
89.573818506 202.0
89.590529775 236.0
89.607241043 184.0
89.623952312 204.0
89.640663581 214.0
89.657374850 189.0
89.674086119 210.0
89.690797388 169.0
89.707508657 210.0
89.724219926 207.0
89.740931195 204.0
89.757642464 208.0
89.774353733 203.0
89.791065002 166.0
89.807776271 202.0
89.824487540 198.0
89.841198809 211.0
89.857910078 203.0
89.874621347 212.0
89.891332616 213.0
89.908043885 213.0
89.924755154 193.0
89.941466423 215.0
89.958177692 156.0
89.974888961 194.0
89.991600230 175.0
